timestamp,sample
1207801,-123
1207803,-64
1207805,24
1207807,96
1207809,124
1207811,96
1207813,20
1207815,-84
1207817,-189
1207819,-241
1207821,-227
1207823,-171
1207825,-81
1207827,18
1207829,66
1207831,54
1207832,-6
1207833,-106
1207835,-210
1207837,-285
1207839,-305
1207841,-265
1207843,-188
1207845,-107
1207847,-46
1207849,-32
1207851,-88
1207853,-192
1207855,-283
1207857,-351
1207859,-369
1207861,-310
1207863,-210
1207864,-100
1207866,-17
1207868,12
1207870,-39
1207872,-143
1207874,-274
1207876,-390
1207878,-436
1207880,-404
1207882,-321
1207884,-208
1207886,-107
1207888,-53
1207890,-61
1207892,-143
1207894,-258
1207895,-361
1207897,-426
1207899,-416
1207901,-339
1207903,-227
1207905,-132
1207907,-74
1207909,-72
1207911,-147
1207913,-262
1207915,-370
1207917,-431
1207919,-425
1207921,-361
1207923,-258
1207926,-146
1207928,-78
1207930,-88
1207932,-164
1207934,-277
1207936,-398
1207938,-485
1207940,-497
1207942,-433
1207944,-329
1207946,-210
1207948,-120
1207950,-86
1207952,-123
1207954,-216
1207956,-330
1207957,-419
1207958,-458
1207960,-435
1207962,-352
1207964,-243
1207966,-163
1207968,-128
1207970,-151
1207972,-231
1207974,-339
1207976,-430
1207978,-472
1207980,-459
1207982,-386
1207984,-279
1207986,-179
1207988,-125
1207989,-137
1207991,-208
1207993,-306
1207995,-406
1207997,-466
1207999,-456
1208001,-391
1208003,-281
1208005,-158
1208007,-77
1208009,-58
1208011,-110
1208013,-218
1208015,-339
1208017,-430
1208019,-458
1208020,-399
1208022,-285
1208024,-171
1208026,-74
1208028,-38
1208030,-84
1208032,-191
1208034,-319
1208036,-427
1208038,-477
1208040,-450
1208042,-350
1208044,-215
1208046,-100
1208048,-46
1208051,-63
1208053,-134
1208055,-244
1208057,-354
1208059,-414
1208061,-401
1208063,-314
1208065,-193
1208067,-87
1208069,-29
1208071,-42
1208073,-126
1208075,-245
1208077,-348
1208079,-415
1208081,-423
1208082,-357
1208083,-248
1208085,-155
1208087,-99
1208089,-99
1208091,-155
1208093,-239
1208095,-320
1208097,-370
1208099,-355
1208101,-282
1208103,-189
1208105,-86
1208107,-16
1208109,-24
1208111,-92
1208113,-193
1208114,-315
1208116,-406
1208118,-433
1208120,-392
1208122,-291
1208124,-164
1208126,-72
1208128,-28
1208130,-58
1208132,-151
1208134,-260
1208136,-358
1208138,-403
1208140,-366
1208142,-265
1208144,-145
1208145,-43
1208147,-4
1208149,-39
1208151,-126
1208153,-252
1208155,-356
1208157,-401
1208159,-381
1208161,-293
1208163,-168
1208165,-53
1208167,12
1208169,5
1208171,-66
1208173,-163
1208176,-252
1208178,-302
1208180,-285
1208182,-204
1208184,-88
1208186,45
1208188,136
1208190,159
1208192,119
1208194,38
1208196,-57
1208198,-119
1208200,-138
1208202,-104
1208204,-14
1208206,84
1208207,166
1208208,197
1208210,161
1208212,78
1208214,-14
1208216,-95
1208218,-138
1208220,-115
1208222,-40
1208224,53
1208226,151
1208228,211
1208230,204
1208232,140
1208234,47
1208236,-34
1208238,-79
1208239,-74
1208241,-8
1208243,92
1208245,187
1208247,235
1208249,215
1208251,142
1208253,31
1208255,-71
1208257,-127
1208259,-132
1208261,-74
1208263,21
1208265,126
1208267,199
1208269,203
1208270,140
1208272,36
1208274,-71
1208276,-154
1208278,-179
1208280,-140
1208282,-62
1208284,46
1208286,131
1208288,150
1208290,112
1208292,14
1208294,-105
1208296,-186
1208298,-213
1208301,-180
1208303,-98
1208305,-4
1208307,66
1208309,94
1208311,57
1208313,-45
1208315,-142
1208317,-206
1208319,-239
1208321,-214
1208323,-143
1208325,-52
1208327,33
1208329,73
1208331,54
1208332,-14
1208333,-101
1208335,-186
1208337,-225
1208339,-204
1208341,-140
1208343,-40
1208345,59
1208347,112
1208349,98
1208351,18
1208353,-112
1208355,-238
1208357,-320
1208359,-339
1208361,-294
1208363,-195
1208364,-81
1208366,8
1208368,30
1208370,-17
1208372,-110
1208374,-217
1208376,-296
1208378,-324
1208380,-293
1208382,-216
1208384,-120
1208386,-45
1208388,-14
1208390,-61
1208392,-173
1208394,-296
1208395,-400
1208397,-462
1208399,-452
1208401,-378
1208403,-275
1208405,-174
1208407,-117
1208409,-128
1208411,-205
1208413,-327
1208415,-457
1208417,-523
1208419,-528
1208421,-478
1208423,-384
1208426,-278
1208428,-221
1208430,-220
1208432,-288
1208434,-403
1208436,-511
1208438,-571
1208440,-575
1208442,-504
1208444,-396
1208446,-302
1208448,-247
1208450,-256
1208452,-338
1208454,-464
1208456,-589
1208457,-680
1208458,-689
1208460,-618
1208462,-508
1208464,-389
1208466,-307
1208468,-301
1208470,-374
1208472,-504
1208474,-651
1208476,-763
1208478,-802
1208480,-761
1208482,-649
1208484,-509
1208486,-394
1208488,-340
1208489,-376
1208491,-478
1208493,-616
1208495,-744
1208497,-807
1208499,-781
1208501,-685
1208503,-545
1208505,-418
1208507,-356
1208509,-384
1208511,-491
1208513,-656
1208515,-804
1208517,-885
1208519,-875
1208520,-773
1208522,-611
1208524,-460
1208526,-362
1208528,-343
1208530,-415
1208532,-541
1208534,-677
1208536,-764
1208538,-779
1208540,-714
1208542,-602
1208544,-474
1208546,-385
1208548,-369
1208551,-428
1208553,-546
1208555,-669
1208557,-760
1208559,-784
1208561,-717
1208563,-591
1208565,-449
1208567,-327
1208569,-275
1208571,-311
1208573,-417
1208575,-545
1208577,-655
1208579,-700
1208581,-670
1208582,-578
1208583,-441
1208585,-323
1208587,-258
1208589,-267
1208591,-357
1208593,-488
1208595,-592
1208597,-646
1208599,-645
1208601,-566
1208603,-442
1208605,-322
1208607,-244
1208609,-245
1208611,-318
1208613,-441
1208614,-573
1208616,-656
1208618,-652
1208620,-583
1208622,-475
1208624,-352
1208626,-261
1208628,-253
1208630,-331
1208632,-466
1208634,-605
1208636,-699
1208638,-711
1208640,-638
1208642,-508
1208644,-354
1208645,-245
1208647,-219
1208649,-278
1208651,-400
1208653,-531
1208655,-629
1208657,-657
1208659,-594
1208661,-462
1208663,-316
1208665,-205
1208667,-151
1208669,-183
1208671,-295
1208673,-440
1208676,-569
1208678,-627
1208680,-604
1208682,-508
1208684,-362
1208686,-219
1208688,-131
1208690,-121
1208692,-189
1208694,-310
1208696,-451
1208698,-546
1208700,-563
1208702,-505
1208704,-390
1208706,-277
1208707,-207
1208708,-208
1208710,-279
1208712,-392
1208714,-518
1208716,-604
1208718,-613
1208720,-533
1208722,-393
1208724,-250
1208726,-144
1208728,-116
1208730,-174
1208732,-284
1208734,-413
1208736,-509
1208738,-542
1208739,-493
1208741,-373
1208743,-233
1208745,-118
1208747,-75
1208749,-119
1208751,-233
1208753,-368
1208755,-480
1208757,-536
1208759,-518
1208761,-428
1208763,-289
1208765,-162
1208767,-93
1208769,-103
1208770,-200
1208772,-341
1208774,-465
1208776,-533
1208778,-511
1208780,-419
1208782,-285
1208784,-147
1208786,-57
1208788,-65
1208790,-160
1208792,-299
1208794,-436
1208796,-514
1208798,-512
1208801,-431
1208803,-283
1208805,-142
1208807,-40
1208809,-11
1208811,-70
1208813,-205
1208815,-343
1208817,-440
1208819,-460
1208821,-408
1208823,-288
1208825,-149
1208827,-32
1208829,4
1208831,-45
1208832,-159
1208833,-298
1208835,-417
1208837,-459
1208839,-425
1208841,-329
1208843,-190
1208845,-73
1208847,-18
1208849,-34
1208851,-114
1208853,-233
1208855,-331
1208857,-370
1208859,-342
1208861,-252
1208863,-133
1208864,-32
1208866,24
1208868,-3
1208870,-106
1208872,-238
1208874,-360
1208876,-438
1208878,-423
1208880,-334
1208882,-208
1208884,-73
1208886,25
1208888,44
1208890,-15
1208892,-123
1208894,-241
1208895,-323
1208897,-339
1208899,-272
1208901,-144
1208903,-16
1208905,78
1208907,115
1208909,83
1208911,-18
1208913,-139
1208915,-233
1208917,-263
1208919,-221
1208921,-113
1208923,35
1208926,148
1208928,193
1208930,169
1208932,77
1208934,-49
1208936,-153
1208938,-207
1208940,-185
1208942,-83
1208944,54
1208946,171
1208948,237
1208950,214
1208952,129
1208954,27
1208956,-79
1208957,-132
1208958,-106
1208960,-23
1208962,98
1208964,224
1208966,294
1208968,279
1208970,198
1208972,78
1208974,-39
1208976,-125
1208978,-141
1208980,-84
1208982,11
1208984,116
1208986,183
1208988,182
1208989,109
1208991,-21
1208993,-155
1208995,-242
1208997,-277
1208999,-251
1209001,-147
1209003,-19
1209005,69
1209007,99
1209009,58
1209011,-52
1209013,-197
1209015,-322
1209017,-385
1209019,-367
1209020,-287
1209022,-176
1209024,-71
1209026,-16
1209028,-41
1209030,-133
1209032,-263
1209034,-386
1209036,-455
1209038,-440
1209040,-358
1209042,-237
1209044,-119
1209046,-57
1209048,-85
1209051,-190
1209053,-345
1209055,-506
1209057,-620
1209059,-656
1209061,-592
1209063,-466
1209065,-335
1209067,-247
1209069,-242
1209071,-325
1209073,-472
1209075,-629
1209077,-749
1209079,-790
1209081,-737
1209082,-616
1209083,-481
1209085,-383
1209087,-367
1209089,-438
1209091,-571
1209093,-728
1209095,-857
1209097,-905
1209099,-861
1209101,-748
1209103,-600
1209105,-479
1209107,-424
1209109,-455
1209111,-563
1209113,-707
1209114,-834
1209116,-913
1209118,-917
1209120,-826
1209122,-686
1209124,-562
1209126,-495
1209128,-514
1209130,-600
1209132,-730
1209134,-861
1209136,-935
1209138,-918
1209140,-822
1209142,-668
1209144,-507
1209145,-401
1209147,-397
1209149,-473
1209151,-595
1209153,-702
1209155,-775
1209157,-773
1209159,-682
1209161,-532
1209163,-384
1209165,-269
1209167,-234
1209169,-283
1209171,-393
1209173,-514
1209176,-595
1209178,-601
1209180,-539
1209182,-404
1209184,-238
1209186,-106
1209188,-45
1209190,-63
1209192,-140
1209194,-250
1209196,-357
1209198,-397
1209200,-347
1209202,-237
1209204,-96
1209206,43
1209207,119
1209208,113
1209210,41
1209212,-71
1209214,-182
1209216,-252
1209218,-249
1209220,-172
1209222,-47
1209224,85
1209226,174
1209228,195
1209230,143
1209232,38
1209234,-80
1209236,-160
1209238,-179
1209239,-125
1209241,-7
1209243,119
1209245,201
1209247,227
1209249,173
1209251,55
1209253,-72
1209255,-157
1209257,-183
1209259,-125
1209261,-5
1209263,123
1209265,241
1209267,295
1209269,257
1209270,164
1209272,57
1209274,-43
1209276,-84
1209278,-66
1209280,4
1209282,105
1209284,198
1209286,234
1209288,208
1209290,125
1209292,17
1209294,-68
1209296,-105
1209298,-73
1209301,14
1209303,127
1209305,237
1209307,309
1209309,308
1209311,245
1209313,151
1209315,67
1209317,25
1209319,25
1209321,75
1209323,176
1209325,269
1209327,326
1209329,335
1209331,294
1209332,203
1209333,92
1209335,17
1209337,-4
1209339,25
1209341,89
1209343,176
1209345,248
1209347,269
1209349,226
1209351,141
1209353,53
1209355,-9
1209357,-28
1209359,9
1209361,99
1209363,192
1209364,262
1209366,290
1209368,256
1209370,165
1209372,62
1209374,-35
1209376,-87
1209378,-79
1209380,-24
1209382,64
1209384,163
1209386,223
1209388,235
1209390,185
1209392,91
1209394,-6
1209395,-63
1209397,-74
1209399,-35
1209401,49
1209403,140
1209405,198
1209407,193
1209409,129
1209411,27
1209413,-95
1209415,-172
1209417,-179
1209419,-134
1209421,-58
1209423,28
1209426,83
1209428,96
1209430,48
1209432,-36
1209434,-109
1209436,-169
1209438,-192
1209440,-147
1209442,-71
1209444,3
1209446,53
1209448,61
1209450,29
1209452,-35
1209454,-124
1209456,-201
1209457,-228
1209458,-211
1209460,-139
1209462,-38
1209464,49
1209466,76
1209468,42
1209470,-50
1209472,-167
1209474,-270
1209476,-336
1209478,-329
1209480,-240
1209482,-123
1209484,-27
1209486,20
1209488,-17
1209489,-129
1209491,-277
1209493,-416
1209495,-502
1209497,-513
1209499,-456
1209501,-352
1209503,-240
1209505,-186
1209507,-202
1209509,-287
1209511,-424
1209513,-556
1209515,-648
1209517,-680
1209519,-629
1209520,-517
1209522,-397
1209524,-303
1209526,-279
1209528,-342
1209530,-466
1209532,-616
1209534,-746
1209536,-810
1209538,-808
1209540,-739
1209542,-617
1209544,-505
1209546,-448
1209548,-452
1209551,-525
1209553,-641
1209555,-752
1209557,-817
1209559,-808
1209561,-730
1209563,-623
1209565,-509
1209567,-436
1209569,-454
1209571,-555
1209573,-702
1209575,-847
1209577,-952
1209579,-968
1209581,-892
1209582,-759
1209583,-622
1209585,-542
1209587,-543
1209589,-628
1209591,-772
1209593,-926
1209595,-1030
1209597,-1051
1209599,-987
1209601,-854
1209603,-704
1209605,-593
1209607,-550
1209609,-596
1209611,-703
1209613,-817
1209614,-902
1209616,-924
1209618,-871
1209620,-755
1209622,-603
1209624,-472
1209626,-414
1209628,-440
1209630,-528
1209632,-657
1209634,-766
1209636,-806
1209638,-768
1209640,-657
1209642,-504
1209644,-359
1209645,-271
1209647,-282
1209649,-379
1209651,-509
1209653,-619
1209655,-681
1209657,-653
1209659,-536
1209661,-377
1209663,-221
1209665,-118
1209667,-99
1209669,-156
1209671,-281
1209673,-416
1209676,-489
1209678,-490
1209680,-423
1209682,-306
1209684,-174
1209686,-81
1209688,-59
1209690,-105
1209692,-197
1209694,-292
1209696,-379
1209698,-400
1209700,-343
1209702,-234
1209704,-116
1209706,-18
1209707,19
1209708,-28
1209710,-131
1209712,-238
1209714,-333
1209716,-381
1209718,-353
1209720,-257
1209722,-126
1209724,-3
1209726,61
1209728,47
1209730,-27
1209732,-144
1209734,-247
1209736,-299
1209738,-291
1209739,-227
1209741,-115
1209743,-9
1209745,55
1209747,45
1209749,-31
1209751,-145
1209753,-245
1209755,-307
1209757,-304
1209759,-227
1209761,-111
1209763,-1
1209765,79
1209767,84
1209769,16
1209770,-104
1209772,-241
1209774,-345
1209776,-373
1209778,-329
1209780,-218
1209782,-74
1209784,29
1209786,60
1209788,20
1209790,-88
1209792,-217
1209794,-323
1209796,-378
1209798,-349
1209801,-242
1209803,-119
1209805,-18
1209807,21
1209809,-24
1209811,-133
1209813,-277
1209815,-402
1209817,-471
1209819,-463
1209821,-390
1209823,-266
1209825,-140
1209827,-72
1209829,-83
1209831,-169
1209832,-296
1209833,-420
1209835,-504
1209837,-514
1209839,-440
1209841,-321
1209843,-200
1209845,-123
1209847,-124
1209849,-204
1209851,-334
1209853,-467
1209855,-558
1209857,-566
1209859,-490
1209861,-362
1209863,-214
1209864,-94
1209866,-58
1209868,-123
1209870,-249
1209872,-390
1209874,-498
1209876,-538
1209878,-500
1209880,-395
1209882,-276
1209884,-183
1209886,-137
1209888,-176
1209890,-286
1209892,-415
1209894,-512
1209895,-546
1209897,-508
1209899,-413
1209901,-284
1209903,-167
1209905,-95
1209907,-94
1209909,-174
1209911,-298
1209913,-417
1209915,-483
1209917,-467
1209919,-388
1209921,-272
1209923,-156
1209926,-82
1209928,-81
1209930,-147
1209932,-259
1209934,-376
1209936,-445
1209938,-449
1209940,-381
1209942,-260
1209944,-141
1209946,-60
1209948,-40
1209950,-98
1209952,-214
1209954,-339
1209956,-445
1209957,-478
1209958,-429
1209960,-325
1209962,-194
1209964,-85
1209966,-49
1209968,-92
1209970,-192
1209972,-315
1209974,-424
1209976,-477
1209978,-453
1209980,-352
1209982,-230
1209984,-136
1209986,-97
1209988,-124
1209989,-222
1209991,-353
1209993,-468
1209995,-523
1209997,-504
1209999,-422
1210001,-294
1210003,-164
1210005,-93
1210007,-109
1210009,-194
1210011,-319
1210013,-449
1210015,-536
1210017,-550
1210019,-492
1210020,-384
1210022,-268
1210024,-193
1210026,-184
1210028,-251
1210030,-361
1210032,-482
1210034,-565
1210036,-589
1210038,-536
1210040,-430
1210042,-310
1210044,-217
1210046,-181
1210048,-228
1210051,-338
1210053,-462
1210055,-558
1210057,-607
1210059,-589
1210061,-500
1210063,-388
1210065,-295
1210067,-259
1210069,-293
1210071,-386
1210073,-501
1210075,-606
1210077,-655
1210079,-635
1210081,-554
1210082,-426
1210083,-297
1210085,-226
1210087,-230
1210089,-300
1210091,-421
1210093,-537
1210095,-606
1210097,-609
1210099,-537
1210101,-416
1210103,-293
1210105,-207
1210107,-202
1210109,-274
1210111,-394
1210113,-514
1210114,-603
1210116,-619
1210118,-551
1210120,-428
1210122,-296
1210124,-210
1210126,-195
1210128,-256
1210130,-377
1210132,-511
1210134,-604
1210136,-626
1210138,-569
1210140,-456
1210142,-308
1210144,-184
1210145,-137
1210147,-174
1210149,-273
1210151,-395
1210153,-490
1210155,-524
1210157,-477
1210159,-366
1210161,-227
1210163,-108
1210165,-43
1210167,-51
1210169,-145
1210171,-277
1210173,-393
1210176,-459
1210178,-447
1210180,-370
1210182,-248
1210184,-119
1210186,-32
1210188,-32
1210190,-108
1210192,-221
1210194,-343
1210196,-433
1210198,-441
1210200,-372
1210202,-259
1210204,-147
1210206,-65
1210207,-46
1210208,-109
1210210,-230
1210212,-343
1210214,-402
1210216,-394
1210218,-330
1210220,-199
1210222,-45
1210224,54
1210226,76
1210228,30
1210230,-91
1210232,-235
1210234,-348
1210236,-399
1210238,-362
1210239,-251
1210241,-123
1210243,-13
1210245,45
1210247,11
1210249,-93
1210251,-221
1210253,-340
1210255,-396
1210257,-381
1210259,-302
1210261,-188
1210263,-87
1210265,-33
1210267,-43
1210269,-107
1210270,-208
1210272,-307
1210274,-362
1210276,-352
1210278,-279
1210280,-160
1210282,-39
1210284,41
1210286,49
1210288,-13
1210290,-120
1210292,-239
1210294,-332
1210296,-357
1210298,-304
1210301,-198
1210303,-75
1210305,16
1210307,35
1210309,-24
1210311,-130
1210313,-250
1210315,-339
1210317,-357
1210319,-296
1210321,-185
1210323,-57
1210325,38
1210327,70
1210329,18
1210331,-95
1210332,-222
1210333,-322
1210335,-370
1210337,-340
1210339,-241
1210341,-121
1210343,-22
1210345,29
1210347,10
1210349,-78
1210351,-198
1210353,-305
1210355,-366
1210357,-358
1210359,-285
1210361,-169
1210363,-58
1210364,0
1210366,-7
1210368,-82
1210370,-191
1210372,-310
1210374,-380
1210376,-370
1210378,-287
1210380,-166
1210382,-48
1210384,31
1210386,29
1210388,-54
1210390,-176
1210392,-309
1210394,-408
1210395,-430
1210397,-371
1210399,-258
1210401,-134
1210403,-48
1210405,-23
1210407,-65
1210409,-172
1210411,-304
1210413,-413
1210415,-469
1210417,-444
1210419,-339
1210421,-208
1210423,-94
1210426,-29
1210428,-28
1210430,-97
1210432,-203
1210434,-298
1210436,-363
1210438,-366
1210440,-316
1210442,-228
1210444,-136
1210446,-93
1210448,-117
1210450,-196
1210452,-304
1210454,-415
1210456,-480
1210457,-466
1210458,-393
1210460,-280
1210462,-170
1210464,-94
1210466,-80
1210468,-147
1210470,-264
1210472,-386
1210474,-477
1210476,-496
1210478,-440
1210480,-340
1210482,-223
1210484,-143
1210486,-134
1210488,-178
1210489,-265
1210491,-378
1210493,-457
1210495,-471
1210497,-426
1210499,-320
1210501,-192
1210503,-90
1210505,-47
1210507,-90
1210509,-197
1210511,-317
1210513,-419
1210515,-481
1210517,-464
1210519,-382
1210520,-270
1210522,-162
1210524,-99
1210526,-113
1210528,-194
1210530,-319
1210532,-436
1210534,-500
1210536,-498
1210538,-430
1210540,-318
1210542,-204
1210544,-135
1210546,-129
1210548,-204
1210551,-327
1210553,-452
1210555,-543
1210557,-559
1210559,-491
1210561,-378
1210563,-255
1210565,-154
1210567,-121
1210569,-169
1210571,-275
1210573,-396
1210575,-477
1210577,-490
1210579,-430
1210581,-300
1210582,-160
1210583,-62
1210585,-25
1210587,-62
1210589,-162
1210591,-290
1210593,-402
1210595,-441
1210597,-399
1210599,-299
1210601,-186
1210603,-83
1210605,-35
1210607,-72
1210609,-168
1210611,-291
1210613,-403
1210614,-457
1210616,-441
1210618,-352
1210620,-215
1210622,-95
1210624,-41
1210626,-56
1210628,-137
1210630,-273
1210632,-406
1210634,-491
1210636,-496
1210638,-412
1210640,-283
1210642,-154
1210644,-51
1210645,-22
1210647,-86
1210649,-195
1210651,-306
1210653,-391
1210655,-423
1210657,-384
1210659,-288
1210661,-165
1210663,-72
1210665,-45
1210667,-74
1210669,-162
1210671,-285
1210673,-383
1210676,-414
1210678,-379
1210680,-281
1210682,-160
1210684,-50
1210686,5
1210688,-23
1210690,-118
1210692,-249
1210694,-367
1210696,-434
1210698,-417
1210700,-324
1210702,-198
1210704,-92
1210706,-25
1210707,-26
1210708,-113
1210710,-235
1210712,-353
1210714,-439
1210716,-451
1210718,-383
1210720,-267
1210722,-138
1210724,-40
1210726,-11
1210728,-45
1210730,-125
1210732,-228
1210734,-301
1210736,-308
1210738,-257
1210739,-159
1210741,-40
1210743,41
1210745,62
1210747,13
1210749,-98
1210751,-234
1210753,-347
1210755,-405
1210757,-389
1210759,-302
1210761,-193
1210763,-107
1210765,-68
1210767,-102
1210769,-202
1210770,-325
1210772,-435
1210774,-486
1210776,-453
1210778,-353
1210780,-216
1210782,-93
1210784,-35
1210786,-54
1210788,-143
1210790,-269
1210792,-381
1210794,-454
1210796,-453
1210798,-375
1210801,-263
1210803,-146
1210805,-79
1210807,-92
1210809,-171
1210811,-293
1210813,-418
1210815,-487
1210817,-481
1210819,-411
1210821,-294
1210823,-171
1210825,-79
1210827,-64
1210829,-137
1210831,-254
1210832,-379
1210833,-482
1210835,-513
1210837,-473
1210839,-378
1210841,-262
1210843,-174
1210845,-146
1210847,-183
1210849,-284
1210851,-413
1210853,-508
1210855,-542
1210857,-520
1210859,-434
1210861,-318
1210863,-223
1210864,-168
1210866,-200
1210868,-308
1210870,-449
1210872,-562
1210874,-629
1210876,-624
1210878,-541
1210880,-410
1210882,-282
1210884,-201
1210886,-202
1210888,-266
1210890,-385
1210892,-514
1210894,-588
1210895,-593
1210897,-532
1210899,-410
1210901,-273
1210903,-168
1210905,-138
1210907,-195
1210909,-308
1210911,-437
1210913,-545
1210915,-588
1210917,-537
1210919,-434
1210921,-303
1210923,-193
1210926,-153
1210928,-200
1210930,-315
1210932,-450
1210934,-550
1210936,-604
1210938,-578
1210940,-471
1210942,-328
1210944,-219
1210946,-171
1210948,-195
1210950,-284
1210952,-412
1210954,-521
1210956,-565
1210957,-534
1210958,-439
1210960,-300
1210962,-156
1210964,-71
1210966,-78
1210968,-166
1210970,-301
1210972,-427
1210974,-506
1210976,-524
1210978,-468
1210980,-356
1210982,-248
1210984,-186
1210986,-177
1210988,-244
1210989,-375
1210991,-516
1210993,-624
1210995,-653
1210997,-590
1210999,-482
1211001,-353
1211003,-235
1211005,-191
1211007,-237
1211009,-335
1211011,-458
1211013,-564
1211015,-597
1211017,-549
1211019,-445
1211020,-312
1211022,-212
1211024,-189
1211026,-233
1211028,-344
1211030,-478
1211032,-581
1211034,-619
1211036,-583
1211038,-482
1211040,-346
1211042,-226
1211044,-169
1211046,-192
1211048,-272
1211051,-392
1211053,-513
1211055,-583
1211057,-570
1211059,-488
1211061,-354
1211063,-223
1211065,-135
1211067,-110
1211069,-179
1211071,-306
1211073,-437
1211075,-536
1211077,-574
1211079,-525
1211081,-412
1211082,-272
1211083,-151
1211085,-116
1211087,-157
1211089,-264
1211091,-404
1211093,-516
1211095,-560
1211097,-513
1211099,-396
1211101,-262
1211103,-143
1211105,-88
1211107,-127
1211109,-244
1211111,-390
1211113,-517
1211114,-580
1211116,-566
1211118,-477
1211120,-339
1211122,-219
1211124,-157
1211126,-152
1211128,-235
1211130,-363
1211132,-490
1211134,-571
1211136,-577
1211138,-502
1211140,-378
1211142,-238
1211144,-136
1211145,-118
1211147,-179
1211149,-296
1211151,-425
1211153,-519
1211155,-536
1211157,-474
1211159,-354
1211161,-224
1211163,-139
1211165,-128
1211167,-206
1211169,-338
1211171,-479
1211173,-583
1211176,-600
1211178,-537
1211180,-421
1211182,-278
1211184,-178
1211186,-162
1211188,-215
1211190,-322
1211192,-448
1211194,-538
1211196,-567
1211198,-521
1211200,-401
1211202,-269
1211204,-166
1211206,-105
1211207,-129
1211208,-224
1211210,-338
1211212,-445
1211214,-505
1211216,-490
1211218,-406
1211220,-267
1211222,-130
1211224,-47
1211226,-43
1211228,-107
1211230,-215
1211232,-336
1211234,-414
1211236,-418
1211238,-346
1211239,-230
1211241,-102
1211243,-6
1211245,6
1211247,-68
1211249,-183
1211251,-308
1211253,-398
1211255,-426
1211257,-375
1211259,-262
1211261,-132
1211263,-40
1211265,-8
1211267,-54
1211269,-170
1211270,-306
1211272,-403
1211274,-431
1211276,-384
1211278,-265
1211280,-124
1211282,-7
1211284,44
1211286,8
1211288,-107
1211290,-246
1211292,-370
1211294,-437
1211296,-429
1211298,-342
1211301,-207
1211303,-80
1211305,-2
1211307,12
1211309,-57
1211311,-164
1211313,-268
1211315,-338
1211317,-339
1211319,-265
1211321,-144
1211323,-8
1211325,96
1211327,121
1211329,78
1211331,-15
1211332,-133
1211333,-211
1211335,-225
1211337,-178
1211339,-76
1211341,40
1211343,129
1211345,161
1211347,121
1211349,20
1211351,-95
1211353,-170
1211355,-187
1211357,-140
1211359,-23
1211361,119
1211363,234
1211364,289
1211366,262
1211368,172
1211370,51
1211372,-68
1211374,-132
1211376,-118
1211378,-50
1211380,48
1211382,132
1211384,177
1211386,165
1211388,86
1211390,-29
1211392,-123
1211394,-169
1211395,-164
1211397,-100
1211399,-7
1211401,92
1211403,159
1211405,162
1211407,116
1211409,40
1211411,-54
1211413,-108
1211415,-105
1211417,-45
1211419,49
1211421,152
1211423,233
1211426,260
1211428,216
1211430,115
1211432,7
1211434,-81
1211436,-120
1211438,-96
1211440,-16
1211442,88
1211444,170
1211446,204
1211448,181
1211450,106
1211452,2
1211454,-98
1211456,-147
1211457,-123
1211458,-50
1211460,49
1211462,149
1211464,206
1211466,189
1211468,113
1211470,0
1211472,-99
1211474,-160
1211476,-185
1211478,-138
1211480,-31
1211482,55
1211484,97
1211486,85
1211488,11
1211489,-104
1211491,-225
1211493,-303
1211495,-316
1211497,-270
1211499,-173
1211501,-57
1211503,22
1211505,35
1211507,-33
1211509,-150
1211511,-269
1211513,-360
1211515,-395
1211517,-354
1211519,-253
1211520,-146
1211522,-59
1211524,-41
1211526,-105
1211528,-211
1211530,-340
1211532,-445
1211534,-478
1211536,-436
1211538,-343
1211540,-219
1211542,-105
1211544,-58
1211546,-97
1211548,-215
1211551,-360
1211553,-484
1211555,-562
1211557,-569
1211559,-496
1211561,-382
1211563,-284
1211565,-232
1211567,-250
1211569,-339
1211571,-468
1211573,-601
1211575,-671
1211577,-665
1211579,-602
1211581,-496
1211582,-379
1211583,-304
1211585,-308
1211587,-389
1211589,-510
1211591,-641
1211593,-735
1211595,-750
1211597,-679
1211599,-540
1211601,-400
1211603,-297
1211605,-254
1211607,-299
1211609,-412
1211611,-549
1211613,-658
1211614,-700
1211616,-660
1211618,-553
1211620,-416
1211622,-296
1211624,-245
1211626,-261
1211628,-340
1211630,-461
1211632,-574
1211634,-633
1211636,-618
1211638,-530
1211640,-407
1211642,-301
1211644,-242
1211645,-242
1211647,-325
1211649,-448
1211651,-552
1211653,-616
1211655,-610
1211657,-523
1211659,-391
1211661,-266
1211663,-195
1211665,-206
1211667,-283
1211669,-410
1211671,-552
1211673,-651
1211676,-662
1211678,-599
1211680,-487
1211682,-354
1211684,-253
1211686,-231
1211688,-282
1211690,-390
1211692,-509
1211694,-601
1211696,-629
1211698,-577
1211700,-457
1211702,-316
1211704,-204
1211706,-151
1211707,-173
1211708,-282
1211710,-428
1211712,-549
1211714,-601
1211716,-585
1211718,-498
1211720,-366
1211722,-243
1211724,-168
1211726,-171
1211728,-251
1211730,-355
1211732,-452
1211734,-515
1211736,-503
1211738,-429
1211739,-327
1211741,-220
1211743,-160
1211745,-173
1211747,-238
1211749,-341
1211751,-451
1211753,-500
1211755,-478
1211757,-408
1211759,-294
1211761,-181
1211763,-107
1211765,-99
1211767,-179
1211769,-302
1211770,-424
1211772,-511
1211774,-530
1211776,-466
1211778,-347
1211780,-220
1211782,-119
1211784,-77
1211786,-107
1211788,-207
1211790,-337
1211792,-435
1211794,-476
1211796,-455
1211798,-361
1211801,-230
1211803,-127
1211805,-87
1211807,-125
1211809,-216
1211811,-336
1211813,-454
1211815,-515
1211817,-492
1211819,-398
1211821,-273
1211823,-158
1211825,-84
1211827,-86
1211829,-164
1211831,-279
1211832,-382
1211833,-446
1211835,-463
1211837,-405
1211839,-297
1211841,-194
1211843,-130
1211845,-131
1211847,-205
1211849,-326
1211851,-461
1211853,-559
1211855,-572
1211857,-508
1211859,-387
1211861,-231
1211863,-104
1211864,-58
1211866,-92
1211868,-197
1211870,-330
1211872,-436
1211874,-485
1211876,-448
1211878,-335
1211880,-201
1211882,-91
1211884,-28
1211886,-41
1211888,-110
1211890,-201
1211892,-283
1211894,-316
1211895,-282
1211897,-197
1211899,-85
1211901,17
1211903,72
1211905,51
1211907,-37
1211909,-153
1211911,-257
1211913,-314
1211915,-301
1211917,-211
1211919,-76
1211921,53
1211923,142
1211926,154
1211928,102
1211930,-3
1211932,-113
1211934,-171
1211936,-157
1211938,-95
1211940,12
1211942,142
1211944,218
1211946,223
1211948,172
1211950,71
1211952,-41
1211954,-118
1211956,-139
1211957,-89
1211958,13
1211960,127
1211962,213
1211964,254
1211966,223
1211968,124
1211970,8
1211972,-88
1211974,-144
1211976,-140
1211978,-77
1211980,16
1211982,97
1211984,131
1211986,98
1211988,8
1211989,-124
1211991,-256
1211993,-341
1211995,-352
1211997,-302
1211999,-208
1212001,-103
1212003,-50
1212005,-71
1212007,-170
1212009,-308
1212011,-447
1212013,-550
1212015,-577
1212017,-507
1212019,-391
1212020,-274
1212022,-189
1212024,-176
1212026,-250
1212028,-375
1212030,-512
1212032,-621
1212034,-657
1212036,-609
1212038,-502
1212040,-364
1212042,-250
1212044,-206
1212046,-250
1212048,-356
1212051,-494
1212053,-616
1212055,-667
1212057,-633
1212059,-528
1212061,-379
1212063,-258
1212065,-203
1212067,-225
1212069,-331
1212071,-478
1212073,-595
1212075,-653
1212077,-631
1212079,-534
1212081,-385
1212082,-244
1212083,-163
1212085,-170
1212087,-248
1212089,-368
1212091,-496
1212093,-577
1212095,-579
1212097,-511
1212099,-398
1212101,-278
1212103,-197
1212105,-180
1212107,-236
1212109,-351
1212111,-459
1212113,-523
1212114,-536
1212116,-480
1212118,-362
1212120,-231
1212122,-124
1212124,-83
1212126,-133
1212128,-236
1212130,-367
1212132,-493
1212134,-545
1212136,-506
1212138,-401
1212140,-259
1212142,-125
1212144,-66
1212145,-91
1212147,-190
1212149,-332
1212151,-454
1212153,-513
1212155,-488
1212157,-378
1212159,-234
1212161,-119
1212163,-63
1212165,-91
1212167,-193
1212169,-330
1212171,-458
1212173,-537
1212176,-542
1212178,-468
1212180,-346
1212182,-224
1212184,-135
1212186,-113
1212188,-168
1212190,-264
1212192,-366
1212194,-437
1212196,-443
1212198,-373
1212200,-253
1212202,-126
1212204,-46
1212206,-43
1212207,-109
1212208,-238
1212210,-388
1212212,-500
1212214,-542
1212216,-501
1212218,-398
1212220,-267
1212222,-156
1212224,-113
1212226,-169
1212228,-279
1212230,-413
1212232,-526
1212234,-571
1212236,-528
1212238,-403
1212239,-242
1212241,-110
1212243,-40
1212245,-51
1212247,-158
1212249,-313
1212251,-450
1212253,-520
1212255,-507
1212257,-424
1212259,-298
1212261,-165
1212263,-79
1212265,-76
1212267,-145
1212269,-260
1212270,-375
1212272,-448
1212274,-457
1212276,-387
1212278,-258
1212280,-138
1212282,-64
1212284,-47
1212286,-114
1212288,-246
1212290,-374
1212292,-469
1212294,-487
1212296,-422
1212298,-303
1212301,-160
1212303,-43
1212305,-9
1212307,-72
1212309,-186
1212311,-335
1212313,-467
1212315,-527
1212317,-502
1212319,-400
1212321,-264
1212323,-144
1212325,-78
1212327,-92
1212329,-188
1212331,-309
1212332,-412
1212333,-468
1212335,-456
1212337,-372
1212339,-245
1212341,-132
1212343,-78
1212345,-102
1212347,-197
1212349,-328
1212351,-456
1212353,-529
1212355,-515
1212357,-422
1212359,-271
1212361,-119
1212363,-14
1212364,21
1212366,-49
1212368,-183
1212370,-327
1212372,-431
1212374,-459
1212376,-406
1212378,-290
1212380,-149
1212382,-41
1212384,-6
1212386,-54
1212388,-151
1212390,-289
1212392,-403
1212394,-456
1212395,-433
1212397,-343
1212399,-228
1212401,-129
1212403,-72
1212405,-96
1212407,-181
1212409,-290
1212411,-402
1212413,-462
1212415,-444
1212417,-361
1212419,-236
1212421,-119
1212423,-50
1212426,-54
1212428,-125
1212430,-249
1212432,-370
1212434,-432
1212436,-428
1212438,-353
1212440,-223
1212442,-85
1212444,-4
1212446,-10
1212448,-78
1212450,-204
1212452,-330
1212454,-417
1212456,-436
1212457,-368
1212458,-242
1212460,-113
1212462,-7
1212464,39
1212466,-11
1212468,-132
1212470,-253
1212472,-350
1212474,-374
1212476,-329
1212478,-220
1212480,-83
1212482,37
1212484,77
1212486,35
1212488,-86
1212489,-244
1212491,-384
1212493,-443
1212495,-413
1212497,-308
1212499,-172
1212501,-34
1212503,43
1212505,31
1212507,-60
1212509,-188
1212511,-315
1212513,-389
1212515,-385
1212517,-309
1212519,-187
1212520,-66
1212522,9
1212524,22
1212526,-29
1212528,-139
1212530,-240
1212532,-306
1212534,-313
1212536,-248
1212538,-134
1212540,-16
1212542,79
1212544,97
1212546,36
1212548,-73
1212551,-176
1212553,-244
1212555,-247
1212557,-169
1212559,-39
1212561,97
1212563,204
1212565,234
1212567,191
1212569,92
1212571,-36
1212573,-132
1212575,-173
1212577,-141
1212579,-64
1212581,39
1212582,142
1212583,199
1212585,187
1212587,120
1212589,21
1212591,-75
1212593,-132
1212595,-124
1212597,-60
1212599,43
1212601,162
1212603,238
1212605,254
1212607,208
1212609,105
1212611,-3
1212613,-81
1212614,-114
1212616,-83
1212618,-6
1212620,79
1212622,134
1212624,128
1212626,44
1212628,-89
1212630,-230
1212632,-347
1212634,-392
1212636,-354
1212638,-268
1212640,-152
1212642,-57
1212644,-25
1212645,-75
1212647,-183
1212649,-323
1212651,-432
1212653,-476
1212655,-452
1212657,-358
1212659,-229
1212661,-132
1212663,-95
1212665,-127
1212667,-244
1212669,-399
1212671,-543
1212673,-632
1212676,-628
1212678,-535
1212680,-396
1212682,-262
1212684,-183
1212686,-185
1212688,-270
1212690,-404
1212692,-538
1212694,-624
1212696,-636
1212698,-556
1212700,-422
1212702,-291
1212704,-220
1212706,-234
1212707,-326
1212708,-450
1212710,-583
1212712,-677
1212714,-684
1212716,-603
1212718,-472
1212720,-329
1212722,-229
1212724,-207
1212726,-277
1212728,-401
1212730,-536
1212732,-635
1212734,-664
1212736,-617
1212738,-496
1212739,-335
1212741,-212
1212743,-166
1212745,-203
1212747,-311
1212749,-450
1212751,-574
1212753,-633
1212755,-607
1212757,-499
1212759,-354
1212761,-225
1212763,-149
1212765,-159
1212767,-257
1212769,-396
1212770,-532
1212772,-619
1212774,-637
1212776,-555
1212778,-414
1212780,-271
1212782,-172
1212784,-154
1212786,-222
1212788,-344
1212790,-488
1212792,-594
1212794,-627
1212796,-578
1212798,-454
1212801,-308
1212803,-195
1212805,-156
1212807,-202
1212809,-310
1212811,-444
1212813,-553
1212815,-598
1212817,-559
1212819,-446
1212821,-314
1212823,-200
1212825,-141
1212827,-169
1212829,-275
1212831,-411
1212832,-529
1212833,-595
1212835,-587
1212837,-510
1212839,-391
1212841,-275
1212843,-221
1212845,-232
1212847,-296
1212849,-418
1212851,-543
1212853,-599
1212855,-569
1212857,-476
1212859,-342
1212861,-208
1212863,-131
1212864,-137
1212866,-231
1212868,-366
1212870,-507
1212872,-606
1212874,-627
1212876,-561
1212878,-435
1212880,-302
1212882,-201
1212884,-176
1212886,-231
1212888,-346
1212890,-468
1212892,-558
1212894,-581
1212895,-532
1212897,-425
1212899,-299
1212901,-188
1212903,-151
1212905,-204
1212907,-318
1212909,-441
1212911,-531
1212913,-558
1212915,-508
1212917,-395
1212919,-264
1212921,-167
1212923,-138
1212926,-188
1212928,-314
1212930,-478
1212932,-595
1212934,-633
1212936,-597
1212938,-493
1212940,-349
1212942,-221
1212944,-145
1212946,-152
1212948,-250
1212950,-395
1212952,-530
1212954,-621
1212956,-617
1212957,-532
1212958,-396
1212960,-253
1212962,-159
1212964,-145
1212966,-224
1212968,-363
1212970,-520
1212972,-635
1212974,-658
1212976,-592
1212978,-458
1212980,-306
1212982,-200
1212984,-174
1212986,-239
1212988,-374
1212989,-533
1212991,-658
1212993,-712
1212995,-686
1212997,-580
1212999,-437
1213001,-309
1213003,-246
1213005,-268
1213007,-362
1213009,-492
1213011,-604
1213013,-656
1213015,-628
1213017,-528
1213019,-378
1213020,-235
1213022,-155
1213024,-164
1213026,-250
1213028,-387
1213030,-510
1213032,-580
1213034,-565
1213036,-476
1213038,-345
1213040,-216
1213042,-130
1213044,-127
1213046,-214
1213048,-340
1213051,-461
1213053,-546
1213055,-561
1213057,-488
1213059,-356
1213061,-207
1213063,-99
1213065,-63
1213067,-109
1213069,-219
1213071,-361
1213073,-471
1213075,-510
1213077,-482
1213079,-390
1213081,-251
1213082,-141
1213083,-103
1213085,-139
1213087,-245
1213089,-381
1213091,-492
1213093,-547
1213095,-522
1213097,-415
1213099,-274
1213101,-149
1213103,-70
1213105,-85
1213107,-184
1213109,-315
1213111,-447
1213113,-518
1213114,-503
1213116,-418
1213118,-277
1213120,-132
1213122,-36
1213124,-29
1213126,-105
1213128,-229
1213130,-360
1213132,-450
1213134,-451
1213136,-369
1213138,-241
1213140,-114
1213142,-20
1213144,-7
1213145,-70
1213147,-195
1213149,-338
1213151,-436
1213153,-461
1213155,-409
1213157,-281
1213159,-133
1213161,-17
1213163,32
1213165,-2
1213167,-100
1213169,-230
1213171,-349
1213173,-405
1213176,-374
1213178,-279
1213180,-148
1213182,-32
1213184,15
1213186,-24
1213188,-131
1213190,-269
1213192,-397
1213194,-472
1213196,-456
1213198,-348
1213200,-205
1213202,-63
1213204,29
1213206,34
1213207,-56
1213208,-194
1213210,-325
1213212,-419
1213214,-437
1213216,-370
1213218,-238
1213220,-89
1213222,27
1213224,68
1213226,17
1213228,-101
1213230,-232
1213232,-334
1213234,-369
1213236,-326
1213238,-215
1213239,-84
1213241,20
1213243,62
1213245,21
1213247,-97
1213249,-242
1213251,-378
1213253,-439
1213255,-415
1213257,-333
1213259,-212
1213261,-91
1213263,-24
1213265,-43
1213267,-142
1213269,-283
1213270,-417
1213272,-503
1213274,-500
1213276,-407
1213278,-256
1213280,-108
1213282,-17
1213284,-3
1213286,-84
1213288,-225
1213290,-373
1213292,-472
1213294,-487
1213296,-414
1213298,-286
1213301,-149
1213303,-47
1213305,-20
1213307,-72
1213309,-187
1213311,-309
1213313,-408
1213315,-440
1213317,-380
1213319,-260
1213321,-129
1213323,-28
1213325,7
1213327,-43
1213329,-153
1213331,-295
1213332,-409
1213333,-443
1213335,-405
1213337,-299
1213339,-153
1213341,-41
1213343,0
1213345,-30
1213347,-130
1213349,-260
1213351,-383
1213353,-454
1213355,-431
1213357,-330
1213359,-197
1213361,-68
1213363,19
1213364,18
1213366,-62
1213368,-170
1213370,-281
1213372,-360
1213374,-364
1213376,-289
1213378,-165
1213380,-45
1213382,21
1213384,9
1213386,-81
1213388,-213
1213390,-347
1213392,-435
1213394,-438
1213395,-365
1213397,-241
1213399,-102
1213401,15
1213403,55
1213405,7
1213407,-102
1213409,-235
1213411,-333
1213413,-377
1213415,-341
1213417,-225
1213419,-94
1213421,3
1213423,54
1213426,29
1213428,-79
1213430,-223
1213432,-344
1213434,-401
1213436,-377
1213438,-283
1213440,-155
1213442,-21
1213444,58
1213446,59
1213448,-11
1213450,-126
1213452,-254
1213454,-330
1213456,-331
1213457,-266
1213458,-150
1213460,-36
1213462,30
1213464,28
1213466,-44
1213468,-169
1213470,-297
1213472,-391
1213474,-411
1213476,-345
1213478,-227
1213480,-95
1213482,10
1213484,44
1213486,-12
1213488,-119
1213489,-246
1213491,-353
1213493,-408
1213495,-390
1213497,-296
1213499,-174
1213501,-72
1213503,-29
1213505,-60
1213507,-167
1213509,-301
1213511,-404
1213513,-447
1213515,-413
1213517,-314
1213519,-177
1213520,-55
1213522,-5
1213524,-42
1213526,-154
1213528,-308
1213530,-451
1213532,-523
1213534,-499
1213536,-425
1213538,-309
1213540,-194
1213542,-130
1213544,-134
1213546,-211
1213548,-332
1213551,-444
1213553,-510
1213555,-504
1213557,-419
1213559,-287
1213561,-158
1213563,-68
1213565,-49
1213567,-121
1213569,-239
1213571,-381
1213573,-498
1213575,-530
1213577,-489
1213579,-388
1213581,-247
1213582,-128
1213583,-76
1213585,-113
1213587,-219
1213589,-351
1213591,-446
1213593,-498
1213595,-470
1213597,-349
1213599,-206
1213601,-86
1213603,-15
1213605,-35
1213607,-152
1213609,-296
1213611,-422
1213613,-485
1213614,-461
1213616,-369
1213618,-240
1213620,-109
1213622,-46
1213624,-69
1213626,-169
1213628,-312
1213630,-450
1213632,-529
1213634,-531
1213636,-454
1213638,-321
1213640,-181
1213642,-90
1213644,-73
1213645,-141
1213647,-276
1213649,-424
1213651,-530
1213653,-556
1213655,-502
1213657,-384
1213659,-244
1213661,-130
1213663,-90
1213665,-146
1213667,-264
1213669,-395
1213671,-508
1213673,-554
1213676,-503
1213678,-387
1213680,-253
1213682,-146
1213684,-107
1213686,-151
1213688,-272
1213690,-427
1213692,-558
1213694,-616
1213696,-584
1213698,-463
1213700,-288
1213702,-137
1213704,-68
1213706,-91
1213707,-200
1213708,-360
1213710,-519
1213712,-607
1213714,-607
1213716,-526
1213718,-378
1213720,-225
1213722,-123
1213724,-111
1213726,-194
1213728,-311
1213730,-427
1213732,-505
1213734,-506
1213736,-421
1213738,-283
1213739,-137
1213741,-33
1213743,-8
1213745,-64
1213747,-190
1213749,-338
1213751,-442
1213753,-479
1213755,-440
1213757,-346
1213759,-221
1213761,-109
1213763,-64
1213765,-108
1213767,-217
1213769,-346
1213770,-448
1213772,-491
1213774,-453
1213776,-340
1213778,-208
1213780,-96
1213782,-30
1213784,-45
1213786,-137
1213788,-273
1213790,-390
1213792,-451
1213794,-424
1213796,-333
1213798,-201
1213801,-66
1213803,10
1213805,11
1213807,-58
1213809,-183
1213811,-315
1213813,-408
1213815,-426
1213817,-365
1213819,-250
1213821,-122
1213823,-32
1213825,-4
1213827,-65
1213829,-185
1213831,-315
1213832,-414
1213833,-452
1213835,-396
1213837,-290
1213839,-158
1213841,-46
1213843,2
1213845,-37
1213847,-136
1213849,-260
1213851,-370
1213853,-417
1213855,-377
1213857,-271
1213859,-147
1213861,-42
1213863,3
1213864,-34
1213866,-147
1213868,-293
1213870,-411
1213872,-467
1213874,-450
1213876,-356
1213878,-209
1213880,-77
1213882,-17
1213884,-35
1213886,-114
1213888,-243
1213890,-377
1213892,-465
1213894,-466
1213895,-392
1213897,-273
1213899,-151
1213901,-61
1213903,-41
1213905,-107
1213907,-234
1213909,-360
1213911,-455
1213913,-490
1213915,-436
1213917,-309
1213919,-156
1213921,-40
1213923,5
1213926,-30
1213928,-136
1213930,-284
1213932,-419
1213934,-485
1213936,-462
1213938,-372
1213940,-249
1213942,-125
1213944,-54
1213946,-78
1213948,-168
1213950,-287
1213952,-400
1213954,-456
1213956,-432
1213957,-327
1213958,-179
1213960,-50
1213962,21
1213964,17
1213966,-69
1213968,-207
1213970,-337
1213972,-420
1213974,-431
1213976,-359
1213978,-231
1213980,-96
1213982,-8
1213984,2
1213986,-62
1213988,-178
1213989,-302
1213991,-391
1213993,-411
1213995,-344
1213997,-219
1213999,-83
1214001,16
1214003,43
1214005,-22
1214007,-163
1214009,-320
1214011,-443
1214013,-492
1214015,-446
1214017,-333
1214019,-179
1214020,-48
1214022,5
1214024,-35
1214026,-141
1214028,-280
1214030,-407
1214032,-464
1214034,-426
1214036,-311
1214038,-166
1214040,-32
1214042,37
1214044,25
1214046,-65
1214048,-209
1214051,-344
1214053,-414
1214055,-409
1214057,-330
1214059,-202
1214061,-71
1214063,2
1214065,-4
1214067,-86
1214069,-221
1214071,-368
1214073,-475
1214075,-502
1214077,-436
1214079,-320
1214081,-180
1214082,-60
1214083,-12
1214085,-57
1214087,-171
1214089,-298
1214091,-397
1214093,-448
1214095,-413
1214097,-304
1214099,-164
1214101,-53
1214103,2
1214105,-16
1214107,-116
1214109,-250
1214111,-366
1214113,-425
1214114,-395
1214116,-301
1214118,-165
1214120,-29
1214122,48
1214124,39
1214126,-62
1214128,-213
1214130,-368
1214132,-479
1214134,-498
1214136,-420
1214138,-279
1214140,-144
1214142,-56
1214144,-35
1214145,-106
1214147,-242
1214149,-383
1214151,-482
1214153,-497
1214155,-429
1214157,-308
1214159,-161
1214161,-51
1214163,-33
1214165,-91
1214167,-198
1214169,-334
1214171,-451
1214173,-490
1214176,-438
1214178,-335
1214180,-213
1214182,-117
1214184,-80
1214186,-123
1214188,-237
1214190,-367
1214192,-464
1214194,-509
1214196,-472
1214198,-368
1214200,-234
1214202,-131
1214204,-92
1214206,-125
1214207,-226
1214208,-373
1214210,-502
1214212,-565
1214214,-539
1214216,-440
1214218,-298
1214220,-172
1214222,-90
1214224,-97
1214226,-189
1214228,-311
1214230,-424
1214232,-499
1214234,-494
1214236,-399
1214238,-249
1214239,-100
1214241,1
1214243,20
1214245,-37
1214247,-161
1214249,-313
1214251,-426
1214253,-468
1214255,-438
1214257,-335
1214259,-196
1214261,-77
1214263,-38
1214265,-83
1214267,-200
1214269,-340
1214270,-458
1214272,-514
1214274,-474
1214276,-355
1214278,-219
1214280,-94
1214282,-30
1214284,-45
1214286,-139
1214288,-277
1214290,-396
1214292,-450
1214294,-424
1214296,-334
1214298,-197
1214301,-58
1214303,14
1214305,-2
1214307,-88
1214309,-211
1214311,-335
1214313,-419
1214315,-415
1214317,-321
1214319,-193
1214321,-81
1214323,-4
1214325,1
1214327,-92
1214329,-240
1214331,-381
1214332,-473
1214333,-490
1214335,-436
1214337,-312
1214339,-170
1214341,-74
1214343,-65
1214345,-134
1214347,-258
1214349,-408
1214351,-519
1214353,-544
1214355,-492
1214357,-363
1214359,-212
1214361,-90
1214363,-45
1214364,-90
1214366,-221
1214368,-381
1214370,-500
1214372,-554
1214374,-530
1214376,-418
1214378,-268
1214380,-126
1214382,-47
1214384,-45
1214386,-119
1214388,-240
1214390,-362
1214392,-430
1214394,-421
1214395,-353
1214397,-246
1214399,-139
1214401,-83
1214403,-95
1214405,-182
1214407,-309
1214409,-433
1214411,-522
1214413,-535
1214415,-466
1214417,-347
1214419,-214
1214421,-110
1214423,-73
1214426,-115
1214428,-213
1214430,-337
1214432,-438
1214434,-474
1214436,-431
1214438,-320
1214440,-178
1214442,-59
1214444,-9
1214446,-36
1214448,-136
1214450,-272
1214452,-393
1214454,-456
1214456,-426
1214457,-314
1214458,-178
1214460,-55
1214462,11
1214464,-9
1214466,-102
1214468,-238
1214470,-365
1214472,-452
1214474,-456
1214476,-372
1214478,-244
1214480,-103
1214482,-12
1214484,1
1214486,-65
1214488,-180
1214489,-313
1214491,-414
1214493,-445
1214495,-390
1214497,-270
1214499,-130
1214501,-37
1214503,-7
1214505,-54
1214507,-186
1214509,-326
1214511,-434
1214513,-487
1214515,-455
1214517,-349
1214519,-209
1214520,-97
1214522,-52
1214524,-92
1214526,-201
1214528,-329
1214530,-449
1214532,-511
1214534,-482
1214536,-378
1214538,-245
1214540,-130
1214542,-74
1214544,-111
1214546,-228
1214548,-373
1214551,-511
1214553,-584
1214555,-575
1214557,-483
1214559,-340
1214561,-202
1214563,-117
1214565,-116
1214567,-199
1214569,-326
1214571,-473
1214573,-570
1214575,-581
1214577,-515
1214579,-383
1214581,-228
1214582,-118
1214583,-84
1214585,-127
1214587,-244
1214589,-386
1214591,-494
1214593,-540
1214595,-502
1214597,-389
1214599,-259
1214601,-157
1214603,-118
1214605,-159
1214607,-262
1214609,-387
1214611,-497
1214614,-541
1214616,-496
1214618,-379
1214620,-243
1214622,-125
1214624,-68
1214626,-108
1214628,-230
1214630,-379
1214632,-514
1214634,-582
1214636,-570
1214638,-474
1214640,-319
1214642,-175
1214644,-93
1214644,-81
1214645,-154
1214647,-286
1214649,-416
1214651,-490
1214653,-496
1214655,-441
1214657,-334
1214659,-211
1214660,-131
1214662,-135
1214664,-219
1214666,-336
1214668,-463
1214670,-552
1214672,-555
1214676,-478
1214678,-350
1214680,-205
1214682,-97
1214684,-69
1214686,-128
1214688,-260
1214690,-416
1214692,-531
1214694,-569
1214696,-524
1214698,-403
1214700,-245
1214702,-113
1214704,-52
1214706,-81
1214707,-198
1214708,-343
1214710,-472
1214712,-543
1214714,-518
1214716,-409
1214718,-265
1214720,-133
1214722,-57
1214724,-75
1214726,-170
1214728,-313
1214730,-444
1214732,-511
1214734,-499
1214736,-407
1214738,-263
1214739,-122
1214741,-33
1214743,-29
1214745,-116
1214747,-260
1214749,-408
1214751,-520
1214753,-550
1214755,-490
1214757,-372
1214759,-243
1214761,-138
1214763,-106
1214765,-153
1214767,-255
1214769,-383
1214770,-472
1214772,-489
1214774,-438
1214776,-316
1214778,-171
1214780,-73
1214782,-50
1214784,-100
1214786,-222
1214788,-384
1214790,-512
1214792,-573
1214794,-540
1214796,-432
1214798,-289
1214801,-153
1214803,-79
1214805,-104
1214807,-193
1214809,-333
1214811,-468
1214813,-560
1214815,-559
1214817,-464
1214819,-314
1214821,-163
1214823,-64
1214825,-44
1214827,-111
1214829,-241
1214831,-382
1214832,-495
1214833,-522
1214835,-454
1214837,-332
1214839,-188
1214841,-78
1214843,-46
1214845,-103
1214847,-212
1214849,-333
1214851,-427
1214853,-453
1214855,-397
1214857,-279
1214859,-142
1214861,-44
1214863,-3
1214864,-34
1214866,-140
1214868,-271
1214870,-370
1214872,-430
1214874,-422
1214876,-340
1214878,-216
1214880,-112
1214882,-56
1214884,-72
1214886,-144
1214888,-250
1214890,-365
1214892,-415
1214894,-382
1214895,-283
1214897,-140
1214899,2
1214901,87
1214903,79
1214905,-26
1214907,-174
1214909,-311
1214911,-412
1214913,-432
1214915,-348
1214917,-216
1214919,-75
1214921,30
1214923,48
1214926,-17
1214928,-137
1214930,-274
1214932,-369
1214934,-393
1214936,-343
1214938,-226
1214940,-91
1214942,-5
1214944,19
1214946,-30
1214948,-154
1214950,-290
1214952,-394
1214954,-435
1214956,-386
1214957,-273
1214958,-135
1214960,-10
1214962,48
1214964,16
1214966,-83
1214968,-217
1214970,-341
1214972,-406
1214974,-389
1214976,-302
1214978,-168
1214980,-31
1214982,57
1214984,56
1214986,-33
1214988,-163
1214989,-300
1214991,-405
1214993,-422
1214995,-361
1214997,-243
1214999,-100
1215001,1
1215003,32
1215005,-18
1215007,-131
1215009,-264
1215011,-367
1215013,-398
1215015,-348
1215017,-242
1215019,-115
1215020,-13
1215022,16
1215024,-41
1215026,-155
1215028,-298
1215030,-414
1215032,-464
1215034,-434
1215036,-321
1215038,-175
1215040,-54
1215042,15
1215044,8
1215046,-90
1215048,-214
1215051,-321
1215053,-386
1215055,-384
1215057,-309
1215059,-197
1215061,-85
1215063,-21
1215065,-34
1215067,-111
1215069,-233
1215071,-363
1215073,-438
1215075,-433
1215077,-360
1215079,-238
1215081,-110
1215082,-20
1215083,0
1215085,-72
1215087,-195
1215089,-316
1215091,-409
1215093,-435
1215095,-374
1215097,-260
1215099,-131
1215101,-38
1215103,-7
1215105,-44
1215107,-149
1215109,-264
1215111,-345
1215113,-379
1215114,-341
1215116,-245
1215118,-125
1215120,-24
1215122,16
1215124,-26
1215126,-128
1215128,-246
1215130,-361
1215132,-419
1215134,-402
1215136,-314
1215138,-192
1215140,-69
1215142,9
1215144,4
1215145,-85
1215147,-214
1215149,-337
1215151,-411
1215153,-422
1215155,-360
1215157,-231
1215159,-89
1215161,0
1215163,16
1215165,-46
1215167,-173
1215169,-315
1215171,-414
1215173,-432
1215176,-376
1215178,-256
1215180,-110
1215182,9
1215184,45
1215186,-13
1215188,-139
1215190,-285
1215192,-409
1215194,-460
1215196,-425
1215198,-322
1215200,-183
1215202,-66
1215204,-15
1215206,-56
1215207,-172
1215208,-311
1215210,-432
1215212,-489
1215214,-461
1215216,-358
1215218,-221
1215220,-95
1215222,-22
1215224,-33
1215226,-121
1215228,-250
1215230,-359
1215232,-413
1215234,-392
1215236,-294
1215238,-153
1215239,-23
1215241,43
1215243,18
1215245,-86
1215247,-250
1215249,-410
1215251,-507
1215253,-508
1215255,-433
1215257,-301
1215259,-152
1215261,-39
1215263,-10
1215265,-72
1215267,-196
1215269,-342
1215270,-467
1215272,-510
1215274,-468
1215276,-363
1215278,-238
1215280,-140
1215282,-95
1215284,-132
1215286,-244
1215288,-384
1215290,-487
1215292,-525
1215294,-493
1215296,-373
1215298,-221
1215301,-101
1215303,-58
1215305,-98
1215307,-215
1215309,-367
1215311,-517
1215313,-608
1215315,-605
1215317,-511
1215319,-365
1215321,-212
1215323,-99
1215325,-83
1215327,-165
1215329,-297
1215331,-445
1215332,-556
1215333,-581
1215335,-522
1215337,-401
1215339,-248
1215341,-140
1215343,-109
1215345,-162
1215347,-282
1215349,-427
1215351,-533
1215353,-564
1215355,-504
1215357,-375
1215359,-224
1215361,-106
1215363,-58
1215364,-105
1215366,-229
1215368,-386
1215370,-522
1215372,-585
1215374,-563
1215376,-461
1215378,-323
1215380,-204
1215382,-147
1215384,-174
1215386,-270
1215388,-406
1215390,-518
1215392,-566
1215394,-533
1215395,-421
1215397,-277
1215399,-137
1215401,-56
1215403,-66
1215405,-159
1215407,-308
1215409,-458
1215411,-560
1215413,-576
1215415,-512
1215417,-387
1215419,-241
1215421,-129
1215423,-87
1215426,-121
1215428,-228
1215430,-367
1215432,-479
1215434,-510
1215436,-463
1215438,-364
1215440,-232
1215442,-125
1215444,-83
1215446,-124
1215448,-237
1215450,-367
1215452,-476
1215454,-537
1215456,-502
1215457,-390
1215458,-259
1215460,-151
1215462,-94
1215464,-123
1215466,-222
1215468,-349
1215470,-468
1215472,-518
1215474,-486
1215476,-397
1215478,-260
1215480,-133
1215482,-66
1215484,-71
1215486,-153
1215488,-286
1215489,-408
1215491,-480
1215493,-476
1215495,-386
1215497,-255
1215499,-125
1215501,-33
1215503,-21
1215505,-93
1215507,-213
1215509,-340
1215511,-429
1215513,-442
1215515,-381
1215517,-256
1215519,-113
1215520,-16
1215522,13
1215524,-35
1215526,-151
1215528,-291
1215530,-396
1215532,-434
1215534,-394
1215536,-292
1215538,-164
1215540,-43
1215542,15
1215544,-24
1215546,-129
1215548,-259
1215551,-381
1215553,-435
1215555,-405
1215557,-301
1215559,-166
1215561,-45
1215563,10
1215565,-16
1215567,-116
1215569,-254
1215571,-381
1215573,-457
1215575,-444
1215577,-349
1215579,-214
1215581,-77
1215582,16
1215583,23
1215585,-45
1215587,-168
1215589,-297
1215591,-389
1215593,-418
1215595,-367
1215597,-256
1215599,-140
1215601,-53
1215603,-30
1215605,-92
1215607,-214
1215609,-335
1215611,-423
1215613,-435
1215614,-365
1215616,-235
1215618,-77
1215620,47
1215622,91
1215624,49
1215626,-74
1215628,-232
1215630,-377
1215632,-452
1215634,-427
1215636,-315
1215638,-177
1215640,-57
1215642,22
1215644,9
1215645,-89
1215647,-217
1215649,-350
1215651,-428
1215653,-421
1215655,-338
1215657,-206
1215659,-68
1215661,10
1215663,5
1215665,-67
1215667,-192
1215669,-322
1215671,-417
1215673,-441
1215676,-366
1215678,-233
1215680,-95
1215682,9
1215684,42
1215686,-28
1215688,-171
1215690,-325
1215692,-441
1215694,-484
1215696,-436
1215698,-313
1215700,-151
1215702,-3
1215704,70
1215706,50
1215707,-54
1215708,-207
1215710,-355
1215712,-431
1215714,-418
1215716,-322
1215718,-175
1215720,-30
1215722,60
1215724,60
1215726,-44
1215728,-200
1215730,-344
1215732,-430
1215734,-424
1215736,-330
1215738,-176
1215739,-30
1215741,61
1215743,70
1215745,-12
1215747,-147
1215749,-284
1215751,-375
1215753,-384
1215755,-319
1215757,-217
1215759,-100
1215761,-5
1215763,22
1215765,-29
1215767,-127
1215769,-244
1215770,-340
1215772,-377
1215774,-344
1215776,-258
1215778,-149
1215780,-59
1215782,-13
1215784,-37
1215786,-131
1215788,-261
1215790,-365
1215792,-403
1215794,-364
1215796,-257
1215798,-118
1215801,8
1215803,64
1215805,31
1215807,-68
1215809,-202
1215811,-332
1215813,-405
1215815,-396
1215817,-306
1215819,-165
1215821,-47
1215823,12
1215825,14
1215827,-69
1215829,-207
1215831,-327
1215832,-405
1215833,-423
1215835,-352
1215837,-231
1215839,-98
1215841,6
1215843,22
1215845,-52
1215847,-156
1215849,-274
1215851,-369
1215853,-407
1215855,-366
1215857,-258
1215859,-136
1215861,-48
1215863,-17
1215864,-50
1215866,-156
1215868,-297
1215870,-405
1215872,-451
1215874,-435
1215876,-347
1215878,-210
1215880,-86
1215882,-18
1215884,-30
1215886,-103
1215888,-218
1215890,-333
1215892,-408
1215894,-405
1215895,-330
1215897,-217
1215899,-106
1215901,-45
1215903,-62
1215905,-158
1215907,-299
1215909,-428
1215911,-513
1215913,-520
1215915,-442
1215917,-304
1215919,-175
1215921,-78
1215923,-58
1215926,-124
1215928,-246
1215930,-378
1215932,-480
1215934,-498
1215936,-435
1215938,-316
1215940,-172
1215942,-45
1215944,3
1215946,-28
1215948,-126
1215950,-277
1215952,-408
1215954,-479
1215956,-471
1215957,-381
1215958,-252
1215960,-133
1215962,-59
1215964,-62
1215966,-147
1215968,-273
1215970,-400
1215972,-475
1215974,-463
1215976,-377
1215978,-236
1215980,-96
1215982,-14
1215984,-14
1215986,-103
1215988,-249
1215989,-386
1215991,-471
1215993,-476
1215995,-392
1215997,-259
1215999,-138
1216001,-58
1216003,-54
1216005,-147
1216007,-286
1216009,-423
1216011,-505
1216013,-504
1216015,-419
1216017,-288
1216019,-147
1216020,-51
1216022,-36
1216024,-98
1216026,-212
1216028,-348
1216030,-461
1216032,-491
1216034,-432
1216036,-321
1216038,-190
1216040,-76
1216042,-29
1216044,-76
1216046,-196
1216048,-339
1216051,-460
1216053,-525
1216055,-510
1216057,-409
1216059,-264
1216061,-145
1216063,-81
1216065,-89
1216067,-172
1216069,-303
1216071,-431
1216073,-493
1216075,-470
1216077,-380
1216079,-252
1216081,-115
1216082,-29
1216083,-36
1216085,-129
1216087,-268
1216089,-418
1216091,-524
1216093,-556
1216095,-491
1216097,-358
1216099,-226
1216101,-137
1216103,-113
1216105,-164
1216107,-286
1216109,-413
1216111,-494
1216113,-511
1216114,-442
1216116,-305
1216118,-147
1216120,-27
1216122,13
1216124,-44
1216126,-169
1216128,-322
1216130,-454
1216132,-522
1216134,-493
1216136,-378
1216138,-229
1216140,-91
1216142,-20
1216144,-49
1216145,-163
1216147,-317
1216149,-454
1216151,-521
1216153,-495
1216155,-390
1216157,-251
1216159,-105
1216161,-18
1216163,-31
1216165,-129
1216167,-263
1216169,-402
1216171,-488
1216173,-482
1216176,-395
1216178,-268
1216180,-128
1216182,-27
1216184,-14
1216186,-92
1216188,-237
1216190,-403
1216192,-517
1216194,-551
1216196,-509
1216198,-388
1216200,-236
1216202,-113
1216204,-64
1216206,-94
1216207,-202
1216208,-334
1216210,-438
1216212,-486
1216214,-440
1216216,-328
1216218,-205
1216220,-92
1216222,-34
1216224,-71
1216226,-189
1216228,-342
1216230,-472
1216232,-548
1216234,-546
1216236,-454
1216238,-308
1216239,-176
1216241,-95
1216243,-85
1216245,-145
1216247,-262
1216249,-387
1216251,-469
1216253,-482
1216255,-411
1216257,-282
1216259,-142
1216261,-44
1216263,-17
1216265,-78
1216267,-202
1216269,-338
1216270,-441
1216272,-484
1216274,-438
1216276,-321
1216278,-185
1216280,-82
1216282,-52
1216284,-109
1216286,-224
1216288,-366
1216290,-487
1216292,-530
1216294,-493
1216296,-392
1216298,-265
1216301,-148
1216303,-96
1216305,-135
1216307,-239
1216309,-371
1216311,-491
1216313,-559
1216315,-543
1216317,-445
1216319,-299
1216321,-170
1216323,-94
1216325,-91
1216327,-168
1216329,-300
1216331,-422
1216332,-487
1216333,-480
1216335,-402
1216337,-269
1216339,-127
1216341,-40
1216343,-34
1216345,-100
1216347,-219
1216349,-347
1216351,-433
1216353,-457
1216355,-394
1216357,-269
1216359,-138
1216361,-41
1216363,-17
1216364,-90
1216366,-215
1216368,-357
1216370,-477
1216372,-521
1216374,-480
1216376,-372
1216378,-224
1216380,-101
1216382,-54
1216384,-86
1216386,-194
1216388,-345
1216390,-469
1216392,-539
1216394,-525
1216395,-427
1216397,-289
1216399,-157
1216401,-74
1216403,-89
1216405,-186
1216407,-317
1216409,-455
1216411,-549
1216413,-553
1216415,-467
1216417,-329
1216419,-183
1216421,-94
1216423,-90
1216426,-160
1216428,-282
1216430,-414
1216432,-487
1216434,-491
1216436,-426
1216438,-298
1216440,-163
1216442,-74
1216444,-61
1216446,-137
1216448,-265
1216450,-387
1216452,-486
1216454,-526
1216456,-473
1216457,-362
1216458,-238
1216460,-133
1216462,-80
1216464,-106
1216466,-202
1216468,-332
1216470,-435
1216472,-477
1216474,-452
1216476,-372
1216478,-245
1216480,-122
1216482,-58
1216484,-81
1216486,-162
1216488,-284
1216489,-408
1216491,-493
1216493,-489
1216495,-399
1216497,-267
1216499,-145
1216501,-66
1216503,-55
1216505,-134
1216507,-270
1216509,-396
1216511,-476
1216513,-475
1216515,-386
1216517,-244
1216519,-100
1216520,-15
1216522,-14
1216524,-105
1216526,-245
1216528,-391
1216530,-507
1216532,-539
1216534,-475
1216536,-347
1216538,-196
1216540,-73
1216542,-16
1216544,-36
1216546,-132
1216548,-262
1216551,-366
1216553,-422
1216555,-416
1216557,-320
1216559,-181
1216561,-66
1216563,-8
1216565,-24
1216567,-107
1216569,-240
1216571,-366
1216573,-430
1216575,-410
1216577,-311
1216579,-172
1216581,-30
1216582,60
1216583,47
1216585,-48
1216587,-175
1216589,-302
1216591,-400
1216593,-408
1216595,-339
1216597,-224
1216599,-87
1216601,3
1216603,24
1216605,-18
1216607,-133
1216609,-265
1216611,-353
1216613,-385
1216614,-342
1216616,-235
1216618,-108
1216620,-11
1216622,33
1216624,-13
1216626,-123
1216628,-248
1216630,-359
1216632,-405
1216634,-357
1216636,-247
1216638,-111
1216640,13
1216642,64
1216644,33
1216645,-61
1216647,-199
1216649,-323
1216651,-387
1216653,-376
1216655,-294
1216657,-164
1216659,-35
1216661,43
1216663,47
1216665,-28
1216667,-152
1216669,-272
1216671,-354
1216673,-363
1216676,-288
1216678,-162
1216680,-26
1216682,67
1216684,93
1216686,33
1216688,-98
1216690,-242
1216692,-359
1216694,-407
1216696,-363
1216698,-252
1216700,-117
1216702,4
1216704,52
1216706,12
1216707,-89
1216708,-226
1216710,-350
1216712,-401
1216714,-373
1216716,-273
1216718,-127
1216720,-6
1216722,59
1216724,46
1216726,-59
1216728,-214
1216730,-343
1216732,-413
1216734,-396
1216736,-290
1216738,-140
1216739,2
1216741,78
1216743,60
1216745,-38
1216747,-187
1216749,-352
1216751,-459
1216753,-458
1216755,-377
1216757,-246
1216759,-98
1216761,3
1216763,17
1216765,-50
1216767,-174
1216769,-300
1216770,-399
1216772,-427
1216774,-361
1216776,-227
1216778,-84
1216780,20
1216782,53
1216784,3
1216786,-112
1216788,-259
1216790,-386
1216792,-442
1216794,-428
1216796,-341
1216798,-209
1216801,-90
1216803,-25
1216805,-44
1216807,-144
1216809,-279
1216811,-397
1216813,-467
1216815,-455
1216817,-352
1216819,-207
1216821,-73
1216823,8
1216825,3
1216827,-80
1216829,-216
1216831,-351
1216832,-428
1216833,-431
1216835,-355
1216837,-231
1216839,-113
1216841,-39
1216843,-44
1216845,-129
1216847,-262
1216849,-395
1216851,-499
1216853,-511
1216855,-436
1216857,-306
1216859,-154
1216861,-37
1216863,-9
1216864,-56
1216866,-168
1216868,-313
1216870,-417
1216872,-452
1216874,-412
1216876,-288
1216878,-139
1216880,-29
1216882,16
1216884,-12
1216886,-107
1216888,-238
1216890,-354
1216892,-410
1216894,-391
1216895,-311
1216897,-198
1216899,-86
1216901,-30
1216903,-56
1216905,-152
1216907,-285
1216909,-402
1216911,-475
1216913,-472
1216915,-378
1216917,-242
1216919,-106
1216921,-15
1216923,-2
1216926,-91
1216928,-242
1216930,-389
1216932,-499
1216934,-526
1216936,-459
1216938,-335
1216940,-186
1216942,-69
1216944,-43
1216946,-99
1216948,-223
1216950,-376
1216952,-495
1216954,-526
1216956,-479
1216957,-353
1216958,-200
1216960,-76
1216962,-13
1216964,-43
1216966,-157
1216968,-298
1216970,-426
1216972,-488
1216974,-457
1216976,-366
1216978,-236
1216980,-105
1216982,-39
1216984,-47
1216986,-127
1216988,-255
1216989,-373
1216991,-428
1216993,-412
1216995,-312
1216997,-166
1216999,-45
1217001,28
1217003,14
1217005,-85
1217007,-230
1217009,-381
1217011,-486
1217013,-493
1217015,-421
1217017,-293
1217019,-150
1217020,-60
1217022,-56
1217024,-128
1217026,-268
1217028,-416
1217030,-529
1217032,-568
1217034,-517
1217036,-383
1217038,-228
1217040,-102
1217042,-35
1217044,-74
1217046,-202
1217048,-342
1217051,-470
1217053,-545
1217055,-531
1217057,-433
1217059,-294
1217061,-166
1217063,-97
1217065,-127
1217067,-222
1217069,-346
1217071,-473
1217073,-532
1217075,-512
1217077,-421
1217079,-292
1217081,-164
1217082,-97
1217083,-113
1217085,-202
1217087,-333
1217089,-447
1217091,-503
1217093,-495
1217095,-398
1217097,-257
1217099,-120
1217101,-33
1217103,-17
1217105,-83
1217107,-207
1217109,-339
1217111,-436
1217113,-464
1217114,-419
1217116,-317
1217118,-195
1217120,-101
1217122,-73
1217124,-119
1217126,-221
1217128,-341
1217130,-447
1217132,-491
1217134,-453
1217136,-346
1217138,-208
1217140,-95
1217142,-44
1217144,-68
1217145,-167
1217147,-309
1217149,-442
1217151,-511
1217153,-491
1217155,-396
1217157,-247
1217159,-96
1217161,-12
1217163,-11
1217165,-87
1217167,-208
1217169,-342
1217171,-444
1217173,-459
1217176,-384
1217178,-257
1217180,-131
1217182,-41
1217184,-30
1217186,-105
1217188,-238
1217190,-375
1217192,-473
1217194,-505
1217196,-454
1217198,-315
1217200,-161
1217202,-45
1217204,0
1217206,-39
1217207,-150
1217208,-280
1217210,-393
1217212,-445
1217214,-414
1217216,-314
1217218,-191
1217220,-79
1217222,-34
1217224,-75
1217226,-185
1217228,-324
1217230,-446
1217232,-498
1217234,-464
1217236,-354
1217238,-206
1217239,-63
1217241,16
1217243,3
1217245,-103
1217247,-256
1217249,-405
1217251,-491
1217253,-489
1217255,-409
1217257,-278
1217259,-145
1217261,-57
1217263,-43
1217265,-113
1217267,-234
1217269,-370
1217270,-465
1217272,-494
1217274,-434
1217276,-321
1217278,-203
1217280,-104
1217282,-62
1217284,-106
1217286,-212
1217288,-339
1217290,-444
1217292,-487
1217294,-448
1217296,-358
1217298,-236
1217301,-122
1217303,-76
1217305,-108
1217307,-203
1217309,-338
1217311,-457
1217313,-515
1217315,-493
1217317,-391
1217319,-251
1217321,-126
1217323,-60
1217325,-63
1217327,-150
1217329,-295
1217331,-433
1217332,-513
1217333,-521
1217335,-442
1217337,-306
1217339,-177
1217341,-98
1217343,-90
1217345,-181
1217347,-313
1217349,-443
1217351,-535
1217353,-551
1217355,-475
1217357,-346
1217359,-204
1217361,-108
1217363,-89
1217364,-153
1217366,-275
1217368,-415
1217370,-521
1217372,-552
1217374,-502
1217376,-389
1217378,-249
1217380,-128
1217382,-74
1217384,-102
1217386,-200
1217388,-336
1217390,-458
1217392,-526
1217394,-518
1217395,-428
1217397,-284
1217399,-146
1217401,-63
1217403,-70
1217405,-157
1217407,-284
1217409,-422
1217411,-511
1217413,-513
1217415,-440
1217417,-310
1217419,-172
1217421,-85
1217423,-82
1217426,-148
1217428,-268
1217430,-399
1217432,-480
1217434,-491
1217436,-426
1217438,-305
1217440,-184
1217442,-88
1217444,-65
1217446,-128
1217448,-243
1217450,-369
1217452,-467
1217454,-494
1217456,-429
1217457,-308
1217458,-169
1217460,-52
1217462,-19
1217464,-67
1217466,-182
1217468,-321
1217470,-432
1217472,-482
1217474,-445
1217476,-342
1217478,-216
1217480,-112
1217482,-70
1217484,-110
1217486,-213
1217488,-338
1217489,-450
1217491,-507
1217493,-476
1217495,-383
1217497,-256
1217499,-133
1217501,-65
1217503,-75
1217505,-156
1217507,-285
1217509,-406
1217511,-478
1217513,-476
1217515,-395
1217517,-253
1217519,-115
1217520,-20
1217522,5
1217524,-70
1217526,-207
1217528,-349
1217530,-462
1217532,-501
1217534,-448
1217536,-326
1217538,-188
1217540,-71
1217542,-24
1217544,-73
1217546,-197
1217548,-342
1217551,-459
1217553,-515
1217555,-477
1217557,-365
1217559,-221
1217561,-98
1217563,-42
1217565,-69
1217567,-175
1217569,-324
1217571,-464
1217573,-536
1217575,-532
1217577,-443
1217579,-294
1217581,-157
1217582,-75
1217583,-65
1217585,-137
1217587,-265
1217589,-389
1217591,-478
1217593,-497
1217595,-430
1217597,-312
1217599,-181
1217601,-80
1217603,-58
1217605,-107
1217607,-216
1217609,-346
1217611,-445
1217613,-473
1217614,-422
1217616,-316
1217618,-174
1217620,-56
1217622,-21
1217624,-71
1217626,-192
1217628,-339
1217630,-464
1217632,-513
1217634,-473
1217636,-351
1217638,-206
1217640,-85
1217642,-31
1217644,-53
1217645,-160
1217647,-294
1217649,-401
1217651,-452
1217653,-425
1217655,-320
1217657,-185
1217659,-62
1217661,4
1217663,-7
1217665,-107
1217667,-252
1217669,-395
1217671,-491
1217673,-498
1217676,-419
1217678,-284
1217680,-139
1217682,-28
1217684,6
1217686,-50
1217688,-167
1217690,-302
1217692,-408
1217694,-437
1217696,-388
1217698,-284
1217700,-151
1217702,-38
1217704,8
1217706,-33
1217707,-142
1217708,-280
1217710,-397
1217712,-453
1217714,-436
1217716,-342
1217718,-212
1217720,-93
1217722,-26
1217724,-38
1217726,-132
1217728,-264
1217730,-385
1217732,-441
1217734,-410
1217736,-310
1217738,-172
1217739,-27
1217741,55
1217743,41
1217745,-50
1217747,-189
1217749,-337
1217751,-429
1217753,-433
1217755,-362
1217757,-235
1217759,-100
1217761,-16
1217763,-5
1217765,-71
1217767,-201
1217769,-335
1217770,-421
1217772,-447
1217774,-386
1217776,-261
1217778,-130
1217780,-35
1217782,-3
1217784,-64
1217786,-196
1217788,-342
1217790,-466
1217792,-512
1217794,-452
1217796,-325
1217798,-176
1217801,-51
1217803,2
1217805,-38
1217807,-152
1217809,-301
1217811,-430
1217813,-483
1217815,-454
1217817,-354
1217819,-222
1217821,-115
1217823,-59
1217825,-77
1217827,-165
1217829,-276
1217831,-380
1217832,-436
1217833,-417
1217835,-339
1217837,-230
1217839,-116
1217841,-48
1217843,-60
1217845,-143
1217847,-269
1217849,-406
1217851,-493
1217853,-500
1217855,-421
1217857,-299
1217859,-167
1217861,-68
1217863,-51
1217864,-128
1217866,-268
1217868,-411
1217870,-507
1217872,-532
1217874,-488
1217876,-377
1217878,-243
1217880,-146
1217882,-106
1217884,-145
1217886,-253
1217888,-376
1217890,-475
1217892,-512
1217894,-471
1217895,-363
1217897,-227
1217899,-101
1217901,-34
1217903,-55
1217905,-156
1217907,-297
1217909,-436
1217911,-518
1217913,-527
1217915,-450
1217917,-315
1217919,-167
1217921,-67
1217923,-45
1217926,-105
1217928,-219
1217930,-343
1217932,-433
1217934,-461
1217936,-402
1217938,-281
1217940,-147
1217942,-35
1217944,4
1217946,-51
1217948,-166
1217950,-297
1217952,-405
1217954,-438
1217956,-389
1217957,-282
1217958,-147
1217960,-39
1217962,-2
1217964,-46
1217966,-161
1217968,-306
1217970,-428
1217972,-480
1217974,-451
1217976,-360
1217978,-222
1217980,-98
1217982,-32
1217984,-40
1217986,-122
1217988,-245
1217989,-369
1217991,-444
1217993,-444
1217995,-371
1217997,-261
1217999,-153
1218001,-72
1218003,-60
1218005,-129
1218007,-247
1218009,-356
1218011,-429
1218013,-447
1218015,-390
1218017,-277
1218019,-170
1218020,-89
1218022,-71
1218024,-126
1218026,-236
1218028,-363
1218030,-454
1218032,-468
1218034,-417
1218036,-317
1218038,-187
1218040,-77
1218042,-45
1218044,-88
1218046,-191
1218048,-327
1218051,-438
1218053,-484
1218055,-449
1218057,-342
1218059,-197
1218061,-72
1218063,-9
1218065,-23
1218067,-120
1218069,-260
1218071,-384
1218073,-455
1218075,-443
1218077,-354
1218079,-223
1218081,-87
1218082,7
1218083,13
1218085,-66
1218087,-191
1218089,-326
1218091,-430
1218093,-454
1218095,-396
1218097,-283
1218099,-156
1218101,-62
1218103,-42
1218105,-99
1218107,-216
1218109,-342
1218111,-426
1218113,-430
1218114,-365
1218116,-245
1218118,-106
1218120,1
1218122,24
1218124,-38
1218126,-160
1218128,-307
1218130,-436
1218132,-492
1218134,-451
1218136,-340
1218138,-197
1218140,-60
1218142,12
1218144,-3
1218145,-106
1218147,-267
1218149,-408
1218151,-490
1218153,-496
1218155,-411
1218157,-271
1218159,-135
1218161,-38
1218163,-13
1218165,-85
1218167,-208
1218169,-334
1218171,-424
1218173,-432
1218176,-369
1218178,-262
1218180,-150
1218182,-72
1218184,-59
1218186,-131
1218188,-261
1218190,-398
1218192,-505
1218194,-534
1218196,-480
1218198,-364
1218200,-226
1218202,-112
1218204,-64
1218206,-87
1218207,-178
1218208,-304
1218210,-409
1218212,-453
1218214,-420
1218216,-325
1218218,-202
1218220,-89
1218222,-33
1218224,-65
1218226,-163
1218228,-299
1218230,-433
1218232,-502
1218234,-484
1218236,-391
1218238,-250
1218239,-106
1218241,-19
1218243,-13
1218245,-91
1218247,-232
1218249,-366
1218251,-458
1218253,-469
1218255,-381
1218257,-240
1218259,-94
1218261,11
1218263,32
1218265,-40
1218267,-178
1218269,-319
1218270,-426
1218272,-454
1218274,-398
1218276,-280
1218278,-140
1218280,-24
1218282,10
1218284,-43
1218286,-159
1218288,-298
1218290,-416
1218292,-468
1218294,-440
1218296,-337
1218298,-194
1218301,-64
1218303,2
1218305,-21
1218307,-125
1218309,-276
1218311,-420
1218313,-504
1218315,-505
1218317,-416
1218319,-277
1218321,-135
1218323,-40
1218325,-29
1218327,-108
1218329,-247
1218331,-380
1218332,-460
1218333,-463
1218335,-383
1218337,-252
1218339,-114
1218341,-21
1218343,-5
1218345,-75
1218347,-196
1218349,-344
1218351,-464
1218353,-486
1218355,-417
1218357,-295
1218359,-150
1218361,-36
1218363,-4
1218364,-45
1218366,-160
1218368,-299
1218370,-399
1218372,-440
1218374,-403
1218376,-282
1218378,-137
1218380,-27
1218382,26
1218384,-5
1218386,-113
1218388,-242
1218390,-353
1218392,-405
1218394,-381
1218395,-286
1218397,-157
1218399,-31
1218401,36
1218403,9
1218405,-97
1218407,-250
1218409,-402
1218411,-500
1218413,-503
1218415,-416
1218417,-274
1218419,-130
1218421,-23
1218423,-2
1218426,-74
1218428,-202
1218430,-333
1218432,-429
1218434,-447
1218436,-388
1218438,-271
1218440,-135
1218442,-28
1218444,2
1218446,-56
1218448,-170
1218450,-293
1218452,-394
1218454,-433
1218456,-392
1218457,-288
1218458,-158
1218460,-54
1218462,-10
1218464,-51
1218466,-164
1218468,-305
1218470,-429
1218472,-487
1218474,-470
1218476,-384
1218478,-254
1218480,-120
1218482,-46
1218484,-56
1218486,-151
1218488,-290
1218489,-421
1218491,-494
1218493,-486
1218495,-396
1218497,-254
1218499,-119
1218501,-37
1218503,-35
1218505,-125
1218507,-276
1218509,-415
1218511,-506
1218513,-516
1218515,-434
1218517,-288
1218519,-135
1218520,-17
1218522,19
1218524,-42
1218526,-177
1218528,-335
1218530,-460
1218532,-511
1218534,-473
1218536,-360
1218538,-214
1218540,-82
1218542,-18
1218544,-51
1218546,-152
1218548,-291
1218551,-412
1218553,-465
1218555,-445
1218557,-352
1218559,-222
1218561,-110
1218563,-60
1218565,-75
1218567,-165
1218569,-299
1218571,-429
1218573,-496
1218575,-482
1218577,-402
1218579,-281
1218581,-152
1218582,-73
1218583,-73
1218585,-155
1218587,-283
1218589,-417
1218591,-515
1218593,-536
1218595,-470
1218597,-350
1218599,-212
1218601,-102
1218603,-67
1218605,-105
1218607,-208
1218609,-326
1218611,-414
1218613,-442
1218614,-392
1218616,-272
1218618,-145
1218620,-52
1218622,-16
1218624,-66
1218626,-189
1218628,-326
1218630,-439
1218632,-494
1218634,-463
1218636,-358
1218638,-222
1218640,-92
1218642,-17
1218644,-25
1218645,-102
1218647,-221
1218649,-346
1218651,-417
1218653,-415
1218655,-344
1218657,-229
1218659,-120
1218661,-56
1218663,-52
1218665,-140
1218667,-269
1218669,-385
1218671,-462
1218673,-464
1218676,-375
1218678,-226
1218680,-83
1218682,12
1218684,32
1218686,-31
1218688,-152
1218690,-301
1218692,-410
1218694,-438
1218696,-396
1218698,-281
1218700,-123
1218702,0
1218704,34
1218706,-11
1218707,-128
1218708,-282
1218710,-415
1218712,-479
1218714,-462
1218716,-368
1218718,-226
1218720,-95
1218722,-19
1218724,-38
1218726,-137
1218728,-266
1218730,-393
1218732,-464
1218734,-451
1218736,-364
1218738,-236
1218739,-107
1218741,-29
1218743,-37
1218745,-125
1218747,-267
1218749,-404
1218751,-489
1218753,-486
1218755,-394
1218757,-257
1218759,-111
1218761,-9
1218763,2
1218765,-84
1218767,-224
1218769,-358
1218770,-464
1218772,-503
1218774,-445
1218776,-322
1218778,-187
1218780,-89
1218782,-60
1218784,-108
1218786,-222
1218788,-370
1218790,-486
1218792,-511
1218794,-471
1218796,-362
1218798,-205
1218801,-61
1218803,10
1218805,-7
1218807,-108
1218809,-245
1218811,-374
1218813,-458
1218815,-455
1218817,-356
1218819,-224
1218821,-106
1218823,-41
1218825,-46
1218827,-136
1218829,-282
1218831,-425
1218832,-504
1218833,-502
1218835,-423
1218837,-278
1218839,-127
1218841,-33
1218843,-29
1218845,-117
1218847,-249
1218849,-393
1218851,-517
1218853,-550
1218855,-483
1218857,-340
1218859,-192
1218861,-74
1218863,-31
1218864,-83
1218866,-207
1218868,-363
1218870,-486
1218872,-540
1218874,-516
1218876,-405
1218878,-254
1218880,-109
1218882,-43
1218884,-59
1218886,-142
1218888,-268
1218890,-388
1218892,-450
1218894,-433
1218895,-347
1218897,-217
1218899,-97
1218901,-20
1218903,-27
1218905,-116
1218907,-242
1218909,-360
1218911,-442
1218913,-442
1218915,-362
1218917,-234
1218919,-103
1218921,-19
1218923,-3
1218926,-64
1218928,-189
1218930,-329
1218932,-435
1218934,-472
1218936,-417
1218938,-302
1218940,-171
1218942,-55
1218944,-10
1218946,-61
1218948,-163
1218950,-281
1218952,-388
1218954,-431
1218956,-394
1218957,-284
1218958,-142
1218960,-29
1218962,16
1218964,-13
1218966,-127
1218968,-287
1218970,-417
1218972,-483
1218974,-487
1218976,-407
1218978,-279
1218980,-154
1218982,-81
1218984,-81
1218986,-165
1218988,-287
1218989,-410
1218991,-490
1218993,-483
1218995,-402
1218997,-278
1218999,-140
1219001,-47
1219003,-38
1219005,-105
1219007,-231
1219009,-371
1219011,-464
1219013,-479
1219015,-411
1219017,-286
1219019,-155
1219020,-59
1219022,-38
1219024,-105
1219026,-224
1219028,-357
1219030,-468
1219032,-507
1219034,-449
1219036,-335
1219038,-195
1219040,-67
1219042,-2
1219044,-19
1219046,-107
1219048,-250
1219051,-376
1219053,-449
1219055,-452
1219057,-370
1219059,-237
1219061,-107
1219063,-21
1219065,-17
1219067,-98
1219069,-235
1219071,-370
1219073,-463
1219075,-467
1219077,-398
1219079,-280
1219081,-149
1219082,-69
1219083,-68
1219085,-147
1219087,-289
1219089,-429
1219091,-522
1219093,-536
1219095,-463
1219097,-328
1219099,-193
1219101,-86
1219103,-50
1219105,-98
1219107,-220
1219109,-364
1219111,-469
1219113,-496
1219114,-453
1219116,-361
1219118,-238
1219120,-124
1219122,-84
1219124,-123
1219126,-224
1219128,-347
1219130,-454
1219132,-500
1219134,-455
1219136,-343
1219138,-207
1219140,-89
1219142,-27
1219144,-44
1219145,-144
1219147,-285
1219149,-414
1219151,-486
1219153,-476
1219155,-397
1219157,-274
1219159,-152
1219161,-73
1219163,-72
1219165,-146
1219167,-263
1219169,-371
1219171,-447
1219173,-455
1219176,-388
1219178,-281
1219180,-168
1219182,-81
1219184,-66
1219186,-130
1219188,-245
1219190,-381
1219192,-483
1219194,-510
1219196,-466
1219198,-360
1219200,-220
1219202,-104
1219204,-55
1219206,-75
1219207,-182
1219208,-319
1219210,-431
1219212,-493
1219214,-464
1219216,-346
1219218,-213
1219220,-94
1219222,-23
1219224,-37
1219226,-139
1219228,-287
1219230,-423
1219232,-494
1219234,-482
1219236,-400
1219238,-260
1219239,-114
1219241,-34
1219243,-31
1219245,-99
1219247,-221
1219249,-348
1219251,-441
1219253,-453
1219255,-387
1219257,-281
1219259,-163
1219261,-52
1219263,-10
1219265,-63
1219267,-178
1219269,-310
1219270,-424
1219272,-470
1219274,-434
1219276,-337
1219278,-201
1219280,-79
1219282,-25
1219284,-43
1219286,-147
1219288,-302
1219290,-432
1219292,-498
1219294,-482
1219296,-383
1219298,-241
1219301,-114
1219303,-32
1219305,-37
1219307,-124
1219309,-254
1219311,-385
1219313,-476
1219315,-482
1219317,-403
1219319,-275
1219321,-143
1219323,-50
1219325,-29
1219327,-86
1219329,-206
1219331,-336
1219332,-419
1219333,-437
1219335,-376
1219337,-262
1219339,-134
1219341,-41
1219343,-22
1219345,-81
1219347,-196
1219349,-322
1219351,-427
1219353,-466
1219355,-420
1219357,-320
1219359,-206
1219361,-109
1219363,-59
1219364,-81
1219366,-171
1219368,-287
1219370,-388
1219372,-440
1219374,-412
1219376,-315
1219378,-173
1219380,-45
1219382,14
1219384,-4
1219386,-90
1219388,-224
1219390,-354
1219392,-418
1219394,-403
1219395,-319
1219397,-183
1219399,-51
1219401,22
1219403,22
1219405,-66
1219407,-203
1219409,-330
1219411,-423
1219413,-443
1219415,-375
1219417,-259
1219419,-132
1219421,-31
1219423,-4
1219426,-59
1219428,-174
1219430,-311
1219432,-418
1219434,-444
1219436,-385
1219438,-258
1219440,-112
1219442,2
1219444,35
1219446,-25
1219448,-148
1219450,-288
1219452,-423
1219454,-487
1219456,-443
1219457,-323
1219458,-171
1219460,-30
1219462,45
1219464,29
1219466,-71
1219468,-218
1219470,-347
1219472,-427
1219474,-444
1219476,-378
1219478,-244
1219480,-112
1219482,-27
1219484,-21
1219486,-88
1219488,-216
1219489,-355
1219491,-448
1219493,-449
1219495,-376
1219497,-265
1219499,-136
1219501,-43
1219503,-37
1219505,-112
1219507,-243
1219509,-379
1219511,-478
1219513,-515
1219515,-451
1219517,-316
1219519,-177
1219520,-83
1219522,-39
1219524,-78
1219526,-188
1219528,-314
1219530,-427
1219532,-487
1219534,-456
1219536,-360
1219538,-232
1219540,-107
1219542,-42
1219544,-66
1219546,-148
1219548,-266
1219551,-382
1219553,-449
1219555,-438
1219557,-356
1219559,-230
1219561,-112
1219563,-52
1219565,-61
1219567,-147
1219569,-278
1219571,-411
1219573,-493
1219575,-495
1219577,-413
1219579,-281
1219581,-148
1219582,-60
1219583,-41
1219585,-104
1219587,-236
1219589,-367
1219591,-463
1219593,-493
1219595,-422
1219597,-293
1219599,-153
1219601,-41
1219603,-1
1219605,-56
1219607,-170
1219609,-312
1219611,-445
1219613,-500
1219614,-475
1219616,-373
1219618,-223
1219620,-95
1219622,-28
1219624,-38
1219626,-127
1219628,-264
1219630,-383
1219632,-455
1219634,-447
1219636,-353
1219638,-221
1219640,-96
1219642,-25
1219644,-37
1219645,-125
1219647,-261
1219649,-388
1219651,-456
1219653,-448
1219655,-373
1219657,-244
1219659,-104
1219661,-15
1219663,-9
1219665,-77
1219667,-197
1219669,-321
1219671,-414
1219673,-428
1219676,-366
1219678,-254
1219680,-135
1219682,-48
1219684,-20
1219686,-83
1219688,-213
1219690,-351
1219692,-457
1219694,-507
1219696,-472
1219698,-366
1219700,-235
1219702,-116
1219704,-48
1219706,-61
1219707,-137
1219708,-262
1219710,-393
1219712,-469
1219714,-472
1219716,-410
1219718,-289
1219720,-166
1219722,-87
1219724,-81
1219726,-148
1219728,-273
1219730,-403
1219732,-499
1219734,-520
1219736,-447
1219738,-321
1219739,-190
1219741,-85
1219743,-54
1219745,-109
1219747,-227
1219749,-355
1219751,-451
1219753,-480
1219755,-420
1219757,-295
1219759,-153
1219761,-42
1219763,-12
1219765,-73
1219767,-192
1219769,-327
1219770,-452
1219772,-514
1219774,-481
1219776,-372
1219778,-232
1219780,-111
1219782,-58
1219784,-75
1219786,-172
1219788,-321
1219790,-446
1219792,-496
1219794,-484
1219796,-398
1219798,-249
1219801,-103
1219803,-13
1219805,-17
1219807,-105
1219809,-230
1219811,-360
1219813,-459
1219815,-467
1219817,-394
1219819,-286
1219821,-166
1219823,-78
1219825,-59
1219827,-113
1219829,-228
1219831,-352
1219832,-431
1219833,-452
1219835,-398
1219837,-277
1219839,-148
1219841,-56
1219843,-20
1219845,-70
1219847,-187
1219849,-321
1219851,-434
1219853,-474
1219855,-416
1219857,-300
1219859,-160
1219861,-37
1219863,8
1219864,-43
1219866,-177
1219868,-334
1219870,-475
1219872,-550
1219874,-535
1219876,-421
1219878,-262
1219880,-108
1219882,-18
1219884,-17
1219886,-101
1219888,-247
1219890,-392
1219892,-474
1219894,-475
1219895,-399
1219897,-266
1219899,-121
1219901,-25
1219903,-19
1219905,-103
1219907,-229
1219909,-361
1219911,-458
1219913,-475
1219915,-406
1219917,-279
1219919,-147
1219921,-60
1219923,-43
1219926,-100
1219928,-225
1219930,-370
1219932,-479
1219934,-513
1219936,-472
1219938,-358
1219940,-210
1219942,-83
1219944,-14
1219946,-38
1219948,-137
1219950,-265
1219952,-387
1219954,-468
1219956,-451
1219957,-352
1219958,-227
1219960,-111
1219962,-52
1219964,-80
1219966,-170
1219968,-305
1219970,-441
1219972,-516
1219974,-503
1219976,-415
1219978,-272
1219980,-128
1219982,-31
1219984,-23
1219986,-92
1219988,-213
1219989,-335
1219991,-420
1219993,-438
1219995,-386
1219997,-271
1219999,-142
1220001,-48
1220003,-17
1220005,-73
1220007,-191
1220009,-311
1220011,-397
1220013,-418
1220015,-361
1220017,-249
1220019,-117
1220020,-9
1220022,32
1220024,-18
1220026,-138
1220028,-293
1220030,-419
1220032,-477
1220034,-434
1220036,-311
1220038,-171
1220040,-45
1220042,35
1220044,22
1220046,-76
1220048,-216
1220051,-345
1220053,-428
1220055,-431
1220057,-355
1220059,-228
1220061,-101
1220063,-33
1220065,-35
1220067,-92
1220069,-192
1220071,-310
1220073,-394
1220075,-415
1220077,-353
1220079,-238
1220081,-115
1220082,-20
1220083,2
1220085,-57
1220087,-166
1220089,-290
1220091,-392
1220093,-430
1220095,-386
1220097,-280
1220099,-147
1220101,-43
1220103,-11
1220105,-58
1220107,-169
1220109,-309
1220111,-427
1220113,-472
1220114,-434
1220116,-329
1220118,-182
1220120,-51
1220122,8
1220124,-24
1220126,-128
1220128,-256
1220130,-380
1220132,-460
1220134,-447
1220136,-344
1220138,-198
1220140,-65
1220142,19
1220144,15
1220145,-80
1220147,-226
1220149,-364
1220151,-456
1220153,-482
1220155,-421
1220157,-295
1220159,-157
1220161,-55
1220163,-43
1220165,-110
1220167,-224
1220169,-359
1220171,-454
1220173,-474
1220176,-416
1220178,-299
1220180,-160
1220182,-51
1220184,-7
1220186,-47
1220188,-166
1220190,-299
1220192,-402
1220194,-445
1220196,-405
1220198,-290
1220200,-145
1220202,-29
1220204,26
1220206,2
1220207,-99
1220208,-237
1220210,-362
1220212,-434
1220214,-435
1220216,-353
1220218,-235
1220220,-140
1220222,-84
1220224,-88
1220226,-169
1220228,-288
1220230,-400
1220232,-469
1220234,-464
1220236,-384
1220238,-251
1220239,-109
1220241,-24
1220243,-26
1220245,-95
1220247,-213
1220249,-354
1220251,-454
1220253,-475
1220255,-413
1220257,-292
1220259,-160
1220261,-55
1220263,-21
1220265,-80
1220267,-193
1220269,-317
1220270,-424
1220272,-473
1220274,-433
1220276,-346
1220278,-223
1220280,-108
1220282,-58
1220284,-78
1220286,-152
1220288,-277
1220290,-393
1220292,-456
1220294,-451
1220296,-375
1220298,-257
1220301,-144
1220303,-64
1220305,-63
1220307,-142
1220309,-278
1220311,-415
1220313,-514
1220315,-529
1220317,-456
1220319,-322
1220321,-182
1220323,-79
1220325,-46
1220327,-105
1220329,-241
1220331,-396
1220332,-510
1220333,-541
1220335,-477
1220337,-347
1220339,-188
1220341,-56
1220343,-5
1220345,-50
1220347,-170
1220349,-320
1220351,-454
1220353,-516
1220355,-469
1220357,-350
1220359,-203
1220361,-76
1220363,-11
1220364,-25
1220366,-133
1220368,-285
1220370,-415
1220372,-478
1220374,-468
1220376,-375
1220378,-233
1220380,-110
1220382,-49
1220384,-60
1220386,-146
1220388,-281
1220390,-425
1220392,-507
1220394,-490
1220395,-400
1220397,-260
1220399,-123
1220401,-24
1220403,-14
1220405,-106
1220407,-251
1220409,-400
1220411,-511
1220413,-538
1220415,-466
1220417,-332
1220419,-185
1220421,-62
1220423,-24
1220426,-76
1220428,-191
1220430,-339
1220432,-449
1220434,-493
1220436,-455
1220438,-354
1220440,-214
1220442,-89
1220444,-24
1220446,-43
1220448,-139
1220450,-268
1220452,-389
1220454,-464
1220456,-449
1220457,-351
1220458,-216
1220460,-84
1220462,5
1220464,13
1220466,-76
1220468,-216
1220470,-345
1220472,-424
1220474,-448
1220476,-396
1220478,-281
1220480,-158
1220482,-86
1220484,-78
1220486,-145
1220488,-249
1220489,-367
1220491,-445
1220493,-447
1220495,-372
1220497,-248
1220499,-110
1220501,-4
1220503,22
1220505,-47
1220507,-180
1220509,-332
1220511,-446
1220513,-495
1220515,-471
1220517,-366
1220519,-223
1220520,-110
1220522,-61
1220524,-86
1220526,-184
1220528,-307
1220530,-431
1220532,-491
1220534,-463
1220536,-376
1220538,-250
1220540,-116
1220542,-39
1220544,-44
1220546,-119
1220548,-248
1220551,-380
1220553,-471
1220555,-488
1220557,-412
1220559,-279
1220561,-137
1220563,-41
1220565,-21
1220567,-86
1220569,-212
1220571,-353
1220573,-455
1220575,-480
1220577,-415
1220579,-289
1220581,-155
1220582,-61
1220583,-42
1220585,-110
1220587,-239
1220589,-377
1220591,-483
1220593,-511
1220595,-452
1220597,-328
1220599,-192
1220601,-92
1220603,-50
1220605,-90
1220607,-201
1220609,-327
1220611,-437
1220613,-491
1220614,-454
1220616,-353
1220618,-229
1220620,-111
1220622,-46
1220624,-66
1220626,-147
1220628,-271
1220630,-397
1220632,-467
1220634,-476
1220636,-403
1220638,-274
1220640,-150
1220642,-67
1220644,-47
1220645,-112
1220647,-234
1220649,-366
1220651,-458
1220653,-477
1220655,-420
1220657,-307
1220659,-166
1220661,-58
1220663,-32
1220665,-83
1220667,-203
1220669,-351
1220671,-458
1220673,-492
1220676,-442
1220678,-339
1220680,-203
1220682,-81
1220684,-21
1220686,-52
1220688,-156
1220690,-290
1220692,-404
1220694,-468
1220696,-445
1220698,-354
1220700,-229
1220702,-115
1220704,-42
1220706,-44
1220707,-130
1220708,-258
1220710,-379
1220712,-453
1220714,-450
1220716,-371
1220718,-247
1220720,-124
1220722,-41
1220724,-32
1220726,-112
1220728,-253
1220730,-398
1220732,-504
1220734,-521
1220736,-462
1220738,-335
1220739,-173
1220741,-50
1220743,-4
1220745,-34
1220747,-140
1220749,-274
1220751,-389
1220753,-431
1220755,-389
1220757,-278
1220759,-151
1220761,-45
1220763,-1
1220765,-38
1220767,-139
1220769,-274
1220770,-394
1220772,-455
1220774,-440
1220776,-351
1220778,-220
1220780,-106
1220782,-52
1220784,-67
1220786,-153
1220788,-280
1220790,-391
1220792,-465
1220794,-455
1220796,-373
1220798,-257
1220801,-137
1220803,-49
1220805,-44
1220807,-114
1220809,-231
1220811,-353
1220813,-442
1220815,-467
1220817,-410
1220819,-290
1220821,-164
1220823,-65
1220825,-21
1220827,-61
1220829,-174
1220831,-315
1220832,-428
1220833,-471
1220835,-445
1220837,-339
1220839,-199
1220841,-79
1220843,-40
1220845,-80
1220847,-177
1220849,-302
1220851,-415
1220853,-469
1220855,-439
1220857,-343
1220859,-219
1220861,-105
1220863,-48
1220864,-62
1220866,-155
1220868,-286
1220870,-390
1220872,-453
1220874,-447
1220876,-361
1220878,-235
1220880,-111
1220882,-23
1220884,-9
1220886,-82
1220888,-210
1220890,-349
1220892,-464
1220894,-495
1220895,-430
1220897,-315
1220899,-177
1220901,-60
1220903,-23
1220905,-63
1220907,-171
1220909,-311
1220911,-422
1220913,-459
1220915,-417
1220917,-291
1220919,-139
1220921,-27
1220923,22
1220926,0
1220928,-110
1220930,-258
1220932,-391
1220934,-471
1220936,-467
1220938,-386
1220940,-267
1220942,-150
1220944,-87
1220946,-114
1220948,-203
1220950,-321
1220952,-448
1220954,-531
1220956,-531
1220957,-452
1220958,-321
1220960,-192
1220962,-118
1220964,-115
1220966,-182
1220968,-295
1220970,-404
1220972,-467
1220974,-464
1220976,-391
1220978,-269
1220980,-135
1220982,-32
1220984,-21
1220986,-88
1220988,-199
1220989,-334
1220991,-441
1220993,-478
1220995,-431
1220997,-312
1220999,-168
1221001,-53
1221003,-4
1221005,-30
1221007,-136
1221009,-295
1221011,-429
1221013,-508
1221015,-512
1221017,-438
1221019,-310
1221020,-189
1221022,-126
1221024,-138
1221026,-214
1221028,-322
1221030,-438
1221032,-504
1221034,-472
1221036,-373
1221038,-247
1221040,-115
1221042,-34
1221044,-38
1221046,-127
1221048,-264
1221051,-394
1221053,-479
1221055,-488
1221057,-397
1221059,-256
1221061,-133
1221063,-36
1221065,-4
1221067,-59
1221069,-183
1221071,-326
1221073,-432
1221075,-462
1221077,-421
1221079,-314
1221081,-185
1221082,-91
1221083,-61
1221085,-97
1221087,-193
1221089,-311
1221091,-410
1221093,-449
1221095,-398
1221097,-280
1221099,-146
1221101,-39
1221103,5
1221105,-29
1221107,-136
1221109,-273
1221111,-391
1221113,-450
1221114,-429
1221116,-323
1221118,-179
1221120,-47
1221122,35
1221124,23
1221126,-70
1221128,-204
1221130,-353
1221132,-449
1221134,-454
1221136,-384
1221138,-255
1221140,-109
1221142,-7
1221144,17
1221145,-30
1221147,-148
1221149,-293
1221151,-395
1221153,-431
1221155,-388
1221157,-272
1221159,-138
1221161,-26
1221163,25
1221165,-7
1221167,-108
1221169,-242
1221171,-364
1221173,-434
1221176,-416
1221178,-323
1221180,-205
1221182,-91
1221184,-31
1221186,-71
1221188,-176
1221190,-312
1221192,-438
1221194,-509
1221196,-503
1221198,-415
1221200,-283
1221202,-149
1221204,-67
1221206,-62
1221207,-136
1221208,-264
1221210,-382
1221212,-454
1221214,-462
1221216,-390
1221218,-271
1221220,-140
1221222,-40
1221224,-11
1221226,-66
1221228,-178
1221230,-304
1221232,-400
1221234,-434
1221236,-382
1221238,-274
1221239,-151
1221241,-52
1221243,-29
1221245,-81
1221247,-189
1221249,-331
1221251,-448
1221253,-491
1221255,-456
1221257,-363
1221259,-223
1221261,-100
1221263,-50
1221265,-76
1221267,-170
1221269,-304
1221270,-418
1221272,-480
1221274,-466
1221276,-384
1221278,-249
1221280,-126
1221282,-54
1221284,-52
1221286,-134
1221288,-275
1221290,-404
1221292,-488
1221294,-489
1221296,-399
1221298,-264
1221301,-124
1221303,-15
1221305,6
1221307,-71
1221309,-200
1221311,-344
1221313,-461
1221315,-502
1221317,-447
1221319,-330
1221321,-191
1221323,-77
1221325,-31
1221327,-66
1221329,-175
1221331,-312
1221332,-423
1221333,-479
1221335,-462
1221337,-372
1221339,-245
1221341,-126
1221343,-68
1221345,-97
1221347,-191
1221349,-317
1221351,-437
1221353,-501
1221355,-471
1221357,-375
1221359,-243
1221361,-107
1221363,-25
1221364,-25
1221366,-112
1221368,-252
1221370,-381
1221372,-466
1221374,-489
1221376,-425
1221378,-299
1221380,-176
1221382,-91
1221384,-69
1221386,-131
1221388,-250
1221390,-388
1221392,-487
1221394,-509
1221395,-452
1221397,-332
1221399,-184
1221401,-66
1221403,-22
1221405,-67
1221407,-179
1221409,-319
1221411,-435
1221413,-490
1221415,-451
1221417,-330
1221419,-176
1221421,-48
1221423,13
1221426,-21
1221428,-130
1221430,-272
1221432,-407
1221434,-491
1221436,-488
1221438,-400
1221440,-262
1221442,-128
1221444,-48
1221446,-57
1221448,-139
1221450,-273
1221452,-408
1221454,-485
1221456,-494
1221457,-415
1221458,-279
1221460,-143
1221462,-55
1221464,-45
1221466,-119
1221468,-249
1221470,-387
1221472,-476
1221474,-485
1221476,-421
1221478,-304
1221480,-154
1221482,-36
1221484,-4
1221486,-56
1221488,-178
1221489,-335
1221491,-466
1221493,-525
1221495,-482
1221497,-359
1221499,-212
1221501,-80
1221503,-1
1221505,-13
1221507,-120
1221509,-267
1221511,-389
1221513,-452
1221515,-430
1221517,-326
1221519,-182
1221520,-50
1221522,20
1221524,2
1221526,-99
1221528,-249
1221530,-405
1221532,-502
1221534,-496
1221536,-398
1221538,-258
1221540,-100
1221542,17
1221544,34
1221546,-38
1221548,-170
1221551,-322
1221553,-430
1221555,-457
1221557,-396
1221559,-263
1221561,-120
1221563,-24
1221565,8
1221567,-41
1221569,-167
1221571,-308
1221573,-411
1221575,-455
1221577,-410
1221579,-301
1221581,-171
1221582,-65
1221583,-22
1221585,-61
1221587,-166
1221589,-301
1221591,-423
1221593,-499
1221595,-486
1221597,-390
1221599,-246
1221601,-121
1221603,-44
1221605,-33
1221607,-109
1221609,-237
1221611,-361
1221613,-446
1221614,-461
1221616,-404
1221618,-284
1221620,-149
1221622,-63
1221624,-67
1221626,-143
1221628,-253
1221630,-381
1221632,-471
1221634,-487
1221636,-423
1221638,-303
1221640,-168
1221642,-63
1221644,-27
1221645,-76
1221647,-191
1221649,-320
1221651,-419
1221653,-453
1221655,-411
1221657,-313
1221659,-182
1221661,-65
1221663,-21
1221665,-57
1221667,-158
1221669,-303
1221671,-430
1221673,-489
1221676,-464
1221678,-363
1221680,-225
1221682,-105
1221684,-38
1221686,-48
1221688,-138
1221690,-274
1221692,-410
1221694,-500
1221696,-507
1221698,-416
1221700,-281
1221702,-140
1221704,-42
1221706,-27
1221707,-87
1221708,-199
1221710,-323
1221712,-417
1221714,-440
1221716,-369
1221718,-254
1221720,-125
1221722,-34
1221724,-32
1221726,-116
1221728,-244
1221730,-381
1221732,-481
1221734,-506
1221736,-442
1221739,-304
1221741,-130
1221743,-1
1221745,60
1221747,43
1221749,-68
1221751,-229
1221753,-365
1221755,-457
1221757,-468
1221759,-389
1221761,-247
1221763,-97
1221765,-3
1221767,-2
1221769,-78
1221769,-205
1221770,-343
1221772,-439
1221774,-447
1221776,-375
1221778,-253
1221780,-121
1221782,-26
1221784,-16
1221785,-93
1221787,-221
1221789,-357
1221791,-457
1221793,-486
1221795,-428
1221797,-307
1221801,-167
1221803,-49
1221805,1
1221807,-41
1221809,-154
1221811,-289
1221813,-399
1221815,-445
1221817,-410
1221819,-294
1221821,-147
1221823,-25
1221825,26
1221827,-9
1221829,-112
1221831,-251
1221832,-380
1221833,-438
1221835,-412
1221837,-313
1221839,-184
1221841,-50
1221843,22
1221845,-3
1221847,-97
1221849,-233
1221851,-362
1221853,-438
1221855,-441
1221857,-358
1221859,-216
1221861,-79
1221863,12
1221864,22
1221866,-53
1221868,-182
1221870,-316
1221872,-421
1221874,-447
1221876,-389
1221878,-285
1221880,-163
1221882,-59
1221884,-31
1221886,-78
1221888,-184
1221890,-316
1221892,-417
1221894,-461
1221895,-434
1221897,-324
1221899,-187
1221901,-77
1221903,-11
1221905,-22
1221907,-112
1221909,-239
1221911,-356
1221913,-424
1221915,-413
1221917,-331
1221919,-209
1221921,-88
1221923,-27
1221926,-47
1221928,-126
1221930,-246
1221932,-370
1221934,-448
1221936,-441
1221938,-357
1221940,-233
1221942,-111
1221944,-27
1221946,-26
1221948,-108
1221950,-233
1221952,-357
1221954,-444
1221956,-463
1221957,-400
1221958,-277
1221960,-148
1221962,-57
1221964,-39
1221966,-104
1221968,-225
1221970,-354
1221972,-464
1221974,-513
1221976,-469
1221978,-358
1221980,-217
1221982,-84
1221984,-20
1221986,-48
1221988,-148
1221989,-293
1221991,-424
1221993,-497
1221995,-489
1221997,-394
1221999,-242
1222001,-96
1222003,-22
1222005,-25
1222007,-113
1222009,-262
1222011,-399
1222013,-473
1222015,-469
1222017,-381
1222019,-240
1222020,-115
1222022,-32
1222024,-28
1222026,-118
1222028,-252
1222030,-385
1222032,-484
1222034,-492
1222036,-411
1222038,-292
1222040,-162
1222042,-65
1222044,-53
1222046,-116
1222048,-228
1222051,-366
1222053,-463
1222055,-485
1222057,-427
1222059,-307
1222061,-168
1222063,-67
1222065,-37
1222067,-84
1222069,-207
1222071,-348
1222073,-456
1222075,-510
1222077,-480
1222079,-366
1222081,-222
1222082,-91
1222083,-15
1222085,-30
1222087,-123
1222089,-258
1222091,-392
1222093,-476
1222095,-479
1222097,-417
1222099,-313
1222101,-191
1222103,-111
1222105,-101
1222107,-156
1222109,-274
1222111,-401
1222113,-471
1222114,-487
1222116,-434
1222118,-311
1222120,-177
1222122,-77
1222124,-48
1222126,-102
1222128,-223
1222130,-356
1222132,-467
1222134,-498
1222136,-432
1222138,-305
1222140,-154
1222142,-20
1222144,43
1222145,-3
1222147,-125
1222149,-267
1222151,-402
1222153,-476
1222155,-446
1222157,-344
1222159,-204
1222161,-71
1222163,-9
1222165,-29
1222167,-126
1222169,-278
1222171,-417
1222173,-498
1222176,-495
1222178,-410
1222180,-272
1222182,-132
1222184,-38
1222186,-24
1222188,-90
1222190,-208
1222192,-340
1222194,-441
1222196,-471
1222198,-410
1222200,-284
1222202,-160
1222204,-68
1222206,-40
1222207,-103
1222208,-227
1222210,-360
1222212,-472
1222214,-520
1222216,-477
1222218,-354
1222220,-203
1222222,-76
1222224,-32
1222226,-73
1222228,-182
1222230,-326
1222232,-448
1222234,-509
1222236,-484
1222238,-376
1222239,-230
1222241,-109
1222243,-50
1222245,-78
1222247,-183
1222249,-319
1222251,-443
1222253,-506
1222255,-477
1222257,-376
1222259,-228
1222261,-91
1222263,-15
1222265,-26
1222267,-108
1222269,-236
1222270,-369
1222272,-458
1222274,-479
1222276,-410
1222278,-281
1222280,-154
1222282,-67
1222284,-42
1222286,-100
1222288,-213
1222290,-335
1222292,-424
1222294,-446
1222296,-393
1222298,-274
1222301,-134
1222303,-24
1222305,-10
1222307,-80
1222309,-205
1222311,-344
1222313,-459
1222315,-494
1222317,-438
1222319,-312
1222321,-157
1222323,-23
1222325,45
1222327,18
1222329,-98
1222331,-245
1222332,-380
1222333,-467
1222335,-469
1222337,-389
1222339,-249
1222341,-108
1222343,-18
1222345,-1
1222347,-65
1222349,-198
1222351,-341
1222353,-436
1222355,-447
1222357,-385
1222359,-260
1222361,-120
1222363,-30
1222364,-18
1222366,-90
1222368,-223
1222370,-361
1222372,-458
1222374,-484
1222376,-419
1222378,-272
1222380,-124
1222382,-21
1222384,17
1222386,-33
1222388,-150
1222390,-284
1222392,-404
1222394,-461
1222395,-426
1222397,-319
1222399,-186
1222401,-61
1222403,-8
1222405,-52
1222407,-162
1222409,-297
1222411,-426
1222413,-498
1222415,-486
1222417,-386
1222419,-240
1222421,-106
1222423,-29
1222426,-29
1222428,-115
1222430,-258
1222432,-394
1222434,-475
1222436,-489
1222438,-423
1222440,-287
1222442,-135
1222444,-23
1222446,13
1222448,-44
1222450,-146
1222452,-280
1222454,-398
1222456,-437
1222457,-399
1222458,-306
1222460,-180
1222462,-67
1222464,-23
1222466,-65
1222468,-175
1222470,-307
1222472,-409
1222474,-455
1222476,-425
1222478,-316
1222480,-179
1222482,-51
1222484,17
1222486,-6
1222488,-104
1222489,-236
1222491,-372
1222493,-449
1222495,-444
1222497,-376
1222499,-267
1222501,-152
1222503,-81
1222505,-68
1222507,-131
1222509,-249
1222511,-365
1222513,-442
1222515,-474
1222517,-423
1222519,-294
1222520,-166
1222522,-71
1222524,-43
1222526,-100
1222528,-223
1222530,-361
1222532,-473
1222534,-509
1222536,-452
1222538,-330
1222540,-171
1222542,-27
1222544,16
1222546,-31
1222548,-133
1222551,-265
1222553,-386
1222555,-436
1222557,-400
1222559,-296
1222561,-160
1222563,-42
1222565,26
1222567,13
1222569,-86
1222571,-223
1222573,-355
1222575,-438
1222577,-450
1222579,-378
1222581,-244
1222582,-105
1222583,-15
1222585,-8
1222587,-86
1222589,-219
1222591,-362
1222593,-464
1222595,-495
1222597,-428
1222599,-305
1222601,-178
1222603,-85
1222605,-64
1222607,-121
1222609,-246
1222611,-397
1222613,-504
1222614,-529
1222616,-477
1222618,-360
1222620,-216
1222622,-103
1222624,-57
1222626,-103
1222628,-209
1222630,-338
1222632,-454
1222634,-507
1222636,-455
1222638,-332
1222640,-188
1222642,-61
1222644,3
1222645,-30
1222647,-134
1222649,-263
1222651,-375
1222653,-433
1222655,-416
1222657,-325
1222659,-188
1222661,-79
1222663,-33
1222665,-52
1222667,-151
1222669,-296
1222671,-427
1222673,-494
1222676,-478
1222678,-394
1222680,-252
1222682,-99
1222684,10
1222686,35
1222688,-26
1222690,-144
1222692,-285
1222694,-396
1222696,-433
1222698,-380
1222700,-265
1222702,-139
1222704,-38
1222706,-2
1222707,-57
1222708,-184
1222710,-338
1222712,-462
1222714,-512
1222716,-471
1222718,-348
1222720,-180
1222722,-31
1222724,50
1222726,23
1222728,-81
1222730,-216
1222732,-352
1222734,-443
1222736,-439
1222738,-351
1222739,-224
1222741,-108
1222743,-39
1222745,-48
1222747,-130
1222749,-267
1222751,-398
1222753,-471
1222755,-476
1222757,-410
1222759,-287
1222761,-142
1222763,-50
1222765,-36
1222767,-88
1222769,-209
1222770,-342
1222772,-441
1222774,-475
1222776,-419
1222778,-297
1222780,-159
1222782,-32
1222784,32
1222786,-11
1222788,-132
1222790,-272
1222792,-395
1222794,-462
1222796,-453
1222798,-364
1222801,-228
1222803,-110
1222805,-48
1222807,-57
1222809,-143
1222811,-270
1222813,-386
1222815,-442
1222817,-419
1222819,-337
1222821,-228
1222823,-109
1222825,-43
1222827,-58
1222829,-143
1222831,-269
1222832,-391
1222833,-462
1222835,-462
1222837,-400
1222839,-281
1222841,-151
1222843,-68
1222845,-45
1222847,-103
1222849,-222
1222851,-351
1222853,-451
1222855,-483
1222857,-429
1222859,-310
1222861,-174
1222863,-53
1222864,-4
1222866,-54
1222868,-169
1222870,-309
1222872,-437
1222874,-493
1222876,-464
1222878,-357
1222880,-216
1222882,-106
1222884,-50
1222886,-61
1222888,-156
1222890,-279
1222892,-379
1222894,-426
1222895,-402
1222897,-312
1222899,-201
1222901,-88
1222903,-22
1222905,-46
1222907,-130
1222909,-253
1222911,-385
1222913,-466
1222915,-465
1222917,-394
1222919,-273
1222921,-144
1222923,-59
1222926,-41
1222928,-100
1222930,-226
1222932,-356
1222934,-453
1222936,-486
1222938,-420
1222940,-291
1222942,-155
1222944,-40
1222946,-3
1222948,-58
1222950,-178
1222952,-319
1222954,-435
1222956,-482
1222957,-450
1222958,-350
1222960,-205
1222962,-85
1222964,-19
1222966,-27
1222968,-121
1222970,-249
1222972,-367
1222974,-442
1222976,-446
1222978,-371
1222980,-251
1222982,-137
1222984,-71
1222986,-81
1222988,-162
1222989,-289
1222991,-429
1222993,-519
1222995,-517
1222997,-427
1222999,-295
1223001,-154
1223003,-51
1223005,-41
1223007,-116
1223009,-238
1223011,-371
1223013,-466
1223015,-486
1223017,-420
1223019,-287
1223020,-144
1223022,-43
1223024,-13
1223026,-64
1223028,-179
1223030,-315
1223032,-424
1223034,-474
1223036,-440
1223038,-333
1223040,-210
1223042,-101
1223044,-62
1223046,-108
1223048,-213
1223051,-340
1223053,-444
1223055,-487
1223057,-462
1223059,-366
1223061,-229
1223063,-99
1223065,-36
1223067,-48
1223069,-141
1223071,-289
1223073,-418
1223075,-498
1223077,-500
1223079,-419
1223081,-285
1223082,-136
1223083,-25
1223085,-8
1223087,-74
1223089,-191
1223091,-333
1223093,-447
1223095,-479
1223097,-418
1223099,-300
1223101,-167
1223103,-57
1223105,-19
1223107,-64
1223109,-179
1223111,-321
1223113,-432
1223114,-483
1223116,-456
1223118,-350
1223120,-203
1223122,-82
1223124,-16
1223126,-33
1223128,-123
1223130,-253
1223132,-377
1223134,-455
1223136,-447
1223138,-361
1223140,-236
1223142,-111
1223144,-34
1223145,-42
1223147,-121
1223149,-247
1223151,-382
1223153,-464
1223155,-476
1223157,-414
1223159,-296
1223161,-161
1223163,-70
1223165,-47
1223167,-101
1223169,-211
1223171,-336
1223173,-428
1223176,-450
1223178,-389
1223180,-277
1223182,-162
1223184,-74
1223186,-52
1223188,-123
1223190,-252
1223192,-392
1223194,-490
1223196,-507
1223198,-439
1223200,-301
1223202,-148
1223204,-32
1223206,15
1223207,-22
1223208,-127
1223210,-265
1223212,-384
1223214,-445
1223216,-414
1223218,-310
1223220,-178
1223222,-56
1223224,9
1223226,-14
1223228,-117
1223230,-259
1223232,-389
1223234,-475
1223236,-472
1223238,-384
1223239,-248
1223241,-114
1223243,-30
1223245,-19
1223247,-88
1223249,-212
1223251,-343
1223253,-432
1223255,-437
1223257,-374
1223259,-252
1223261,-112
1223263,-10
1223265,21
1223267,-31
1223269,-144
1223270,-279
1223272,-396
1223274,-448
1223276,-410
1223278,-291
1223280,-156
1223282,-45
1223284,13
1223286,-19
1223288,-123
1223290,-258
1223292,-384
1223294,-451
1223296,-441
1223298,-350
1223301,-220
1223303,-94
1223305,-33
1223307,-50
1223309,-126
1223311,-239
1223313,-354
1223315,-418
1223317,-420
1223319,-352
1223321,-225
1223323,-99
1223325,-18
1223327,-3
1223329,-75
1223331,-205
1223332,-336
1223333,-440
1223335,-480
1223337,-437
1223339,-321
1223341,-178
1223343,-47
1223345,13
1223347,-21
1223349,-120
1223351,-253
1223353,-364
1223355,-425
1223357,-407
1223359,-313
1223361,-184
1223363,-69
1223364,-10
1223366,-37
1223368,-135
1223370,-270
1223372,-392
1223374,-459
1223376,-441
1223378,-351
1223380,-227
1223382,-105
1223384,-40
1223386,-54
1223388,-134
1223390,-264
1223392,-390
1223394,-453
1223395,-449
1223397,-377
1223399,-255
1223401,-136
1223403,-68
1223405,-68
1223407,-139
1223409,-253
1223411,-366
1223413,-445
1223415,-453
1223417,-377
1223419,-249
1223421,-117
1223423,-23
1223426,5
1223428,-62
1223430,-197
1223432,-342
1223434,-452
1223436,-499
1223438,-468
1223440,-350
1223442,-201
1223444,-68
1223446,1
1223448,-21
1223450,-114
1223452,-255
1223454,-390
1223456,-465
1223457,-453
1223458,-376
1223460,-258
1223462,-129
1223464,-55
1223466,-62
1223468,-141
1223470,-271
1223472,-399
1223474,-478
1223476,-475
1223478,-393
1223480,-259
1223482,-123
1223484,-33
1223486,-30
1223488,-104
1223489,-227
1223491,-357
1223493,-448
1223495,-464
1223497,-399
1223499,-283
1223501,-151
1223503,-58
1223505,-34
1223507,-90
1223509,-217
1223511,-352
1223513,-454
1223515,-497
1223517,-447
1223519,-322
1223520,-179
1223522,-54
1223524,7
1223526,-32
1223528,-139
1223530,-293
1223532,-433
1223534,-497
1223536,-479
1223538,-389
1223540,-242
1223542,-101
1223544,-22
1223546,-26
1223548,-103
1223551,-220
1223553,-323
1223555,-393
1223557,-383
1223559,-288
1223561,-162
1223563,-53
1223565,18
1223567,16
1223569,-63
1223571,-200
1223573,-345
1223575,-425
1223577,-436
1223579,-389
1223581,-271
1223582,-138
1223583,-54
1223585,-39
1223587,-107
1223589,-227
1223591,-353
1223593,-459
1223595,-496
1223597,-428
1223599,-299
1223601,-168
1223603,-53
1223605,-8
1223607,-51
1223609,-172
1223611,-324
1223613,-445
1223614,-506
1223616,-492
1223618,-398
1223620,-252
1223622,-120
1223624,-48
1223626,-48
1223628,-119
1223630,-236
1223632,-356
1223634,-430
1223636,-418
1223638,-348
1223640,-242
1223642,-124
1223644,-58
1223645,-75
1223647,-157
1223649,-277
1223651,-386
1223653,-456
1223655,-457
1223657,-381
1223659,-258
1223661,-137
1223663,-52
1223665,-37
1223667,-100
1223669,-221
1223671,-355
1223673,-461
1223676,-487
1223678,-437
1223680,-330
1223682,-184
1223684,-54
1223686,4
1223688,-22
1223690,-133
1223692,-274
1223694,-405
1223696,-487
1223698,-480
1223700,-377
1223702,-233
1223704,-96
1223706,-1
1223707,9
1223708,-72
1223710,-197
1223712,-338
1223714,-430
1223716,-443
1223718,-375
1223720,-251
1223722,-118
1223724,-41
1223726,-41
1223728,-127
1223730,-270
1223732,-412
1223734,-503
1223736,-515
1223738,-433
1223739,-287
1223741,-140
1223743,-40
1223745,-18
1223747,-87
1223749,-221
1223751,-364
1223753,-474
1223755,-509
1223757,-459
1223759,-336
1223761,-183
1223763,-53
1223765,0
1223767,-38
1223769,-146
1223770,-293
1223772,-428
1223774,-499
1223776,-477
1223778,-380
1223780,-239
1223782,-98
1223784,-18
1223786,-14
1223788,-88
1223790,-211
1223792,-325
1223794,-396
1223796,-408
1223798,-336
1223801,-204
1223803,-76
1223805,4
1223807,16
1223809,-62
1223811,-193
1223813,-333
1223815,-443
1223817,-473
1223819,-418
1223821,-296
1223823,-145
1223825,-23
1223827,14
1223829,-43
1223831,-169
1223832,-323
1223833,-447
1223835,-495
1223837,-455
1223839,-335
1223841,-182
1223843,-51
1223845,9
1223847,-23
1223849,-126
1223851,-279
1223853,-417
1223855,-477
1223857,-456
1223859,-366
1223861,-223
1223863,-91
1223864,-27
1223866,-46
1223868,-143
1223870,-286
1223872,-416
1223874,-494
1223876,-480
1223878,-381
1223880,-234
1223882,-99
1223884,-10
1223886,-6
1223888,-91
1223890,-219
1223892,-351
1223894,-453
1223895,-472
1223897,-403
1223899,-283
1223901,-154
1223903,-55
1223905,-38
1223907,-106
1223909,-215
1223911,-342
1223913,-443
1223915,-484
1223917,-440
1223919,-329
1223921,-186
1223923,-71
1223926,-15
1223928,-32
1223930,-128
1223932,-267
1223934,-382
1223936,-445
1223938,-440
1223940,-353
1223942,-218
1223944,-92
1223946,-17
1223948,-21
1223950,-99
1223952,-217
1223954,-335
1223956,-416
1223957,-401
1223958,-310
1223960,-187
1223962,-58
1223964,37
1223966,51
1223968,-25
1223970,-153
1223972,-299
1223974,-409
1223976,-449
1223978,-410
1223980,-293
1223982,-156
1223984,-54
1223986,-14
1223988,-46
1223989,-148
1223991,-279
1223993,-386
1223995,-424
1223997,-380
1223999,-290
1224001,-181
1224003,-91
1224005,-62
1224007,-114
1224009,-229
1224011,-359
1224013,-471
1224015,-511
1224017,-466
1224019,-352
1224020,-189
1224022,-48
1224024,23
1224026,6
1224028,-103
1224030,-268
1224032,-421
1224034,-517
1224036,-530
1224038,-438
1224040,-289
1224042,-142
1224044,-37
1224046,-15
1224048,-84
1224051,-213
1224053,-347
1224055,-442
1224057,-464
1224059,-406
1224061,-297
1224063,-179
1224065,-88
1224067,-68
1224069,-125
1224071,-247
1224073,-380
1224075,-481
1224077,-507
1224079,-457
1224081,-349
1224082,-203
1224083,-78
1224085,-28
1224087,-55
1224089,-147
1224091,-282
1224093,-401
1224095,-465
1224097,-447
1224099,-350
1224101,-225
1224103,-108
1224105,-39
1224107,-45
1224109,-134
1224111,-270
1224113,-407
1224114,-493
1224116,-498
1224118,-423
1224120,-298
1224122,-158
1224124,-55
1224126,-29
1224128,-75
1224130,-187
1224132,-325
1224134,-429
1224136,-456
1224138,-403
1224140,-288
1224142,-155
1224144,-53
1224145,-14
1224147,-60
1224149,-174
1224151,-302
1224153,-414
1224155,-464
1224157,-417
1224159,-299
1224161,-163
1224163,-36
1224165,21
1224167,-10
1224169,-101
1224171,-238
1224173,-370
1224176,-431
1224178,-413
1224180,-335
1224182,-211
1224184,-99
1224186,-55
1224188,-84
1224190,-183
1224192,-322
1224194,-443
1224196,-511
1224198,-488
1224200,-377
1224202,-237
1224204,-100
1224206,-5
1224207,1
1224208,-79
1224210,-204
1224212,-343
1224214,-444
1224216,-468
1224218,-400
1224220,-270
1224222,-124
1224224,-34
1224226,-5
1224228,-52
1224230,-174
1224232,-321
1224234,-440
1224236,-502
1224238,-471
1224239,-357
1224241,-219
1224243,-104
1224245,-51
1224247,-90
1224249,-199
1224251,-336
1224253,-467
1224255,-540
1224257,-526
1224259,-429
1224261,-284
1224263,-135
1224265,-49
1224267,-42
1224269,-111
1224270,-240
1224272,-374
1224274,-470
1224276,-484
1224278,-422
1224280,-307
1224282,-179
1224284,-75
1224286,-43
1224288,-97
1224290,-204
1224292,-329
1224294,-430
1224296,-458
1224298,-401
1224301,-276
1224303,-140
1224305,-32
1224307,3
1224309,-54
1224311,-189
1224313,-350
1224315,-467
1224317,-514
1224319,-472
1224321,-354
1224323,-201
1224325,-74
1224327,-25
1224329,-58
1224331,-163
1224332,-314
1224333,-447
1224335,-514
1224337,-482
1224339,-376
1224341,-243
1224343,-124
1224345,-54
1224347,-72
1224349,-178
1224351,-315
1224353,-443
1224355,-522
1224357,-523
1224359,-440
1224361,-308
1224363,-169
1224364,-81
1224366,-71
1224368,-136
1224370,-261
1224372,-401
1224374,-494
1224376,-513
1224378,-447
1224380,-320
1224382,-183
1224384,-77
1224386,-43
1224388,-102
1224390,-231
1224392,-377
1224394,-495
1224395,-538
1224397,-491
1224399,-379
1224401,-233
1224403,-108
1224405,-56
1224407,-85
1224409,-183
1224411,-313
1224413,-434
1224415,-498
1224417,-470
1224419,-369
1224421,-239
1224423,-109
1224426,-20
1224428,-34
1224430,-128
1224432,-268
1224434,-407
1224436,-499
1224438,-498
1224440,-419
1224442,-289
1224444,-142
1224446,-47
1224448,-25
1224450,-76
1224452,-196
1224454,-318
1224456,-398
1224457,-418
1224458,-362
1224460,-239
1224462,-125
1224464,-48
1224466,-31
1224468,-100
1224470,-227
1224472,-367
1224474,-475
1224476,-517
1224478,-473
1224480,-356
1224482,-209
1224484,-82
1224486,-19
1224488,-46
1224489,-142
1224491,-283
1224493,-416
1224495,-478
1224497,-462
1224499,-373
1224501,-240
1224503,-95
1224505,-14
1224507,-33
1224509,-120
1224511,-250
1224513,-372
1224515,-450
1224517,-448
1224519,-363
1224520,-234
1224522,-104
1224524,-25
1224526,-10
1224528,-79
1224530,-223
1224532,-361
1224534,-449
1224536,-473
1224538,-416
1224540,-287
1224542,-134
1224544,-18
1224546,23
1224548,-39
1224551,-159
1224553,-303
1224555,-433
1224557,-473
1224559,-411
1224561,-288
1224563,-142
1224565,-21
1224567,20
1224569,-29
1224571,-156
1224573,-314
1224575,-441
1224577,-495
1224579,-475
1224581,-385
1224582,-252
1224583,-143
1224585,-102
1224587,-142
1224589,-240
1224591,-370
1224593,-489
1224595,-544
1224597,-514
1224599,-410
1224601,-271
1224603,-140
1224605,-53
1224607,-49
1224609,-134
1224611,-258
1224613,-379
1224614,-468
1224616,-474
1224618,-400
1224620,-269
1224622,-126
1224624,-22
1224626,8
1224628,-47
1224630,-173
1224632,-325
1224634,-443
1224636,-488
1224638,-455
1224640,-351
1224642,-216
1224644,-91
1224645,-31
1224647,-65
1224649,-161
1224651,-297
1224653,-426
1224655,-491
1224657,-472
1224659,-381
1224661,-247
1224663,-130
1224665,-72
1224667,-76
1224669,-173
1224671,-308
1224673,-422
1224676,-487
1224678,-479
1224680,-384
1224682,-261
1224684,-145
1224686,-74
1224688,-83
1224690,-172
1224692,-300
1224694,-429
1224696,-513
1224698,-508
1224700,-432
1224702,-298
1224704,-150
1224706,-45
1224707,-21
1224708,-85
1224710,-208
1224712,-354
1224714,-476
1224716,-513
1224718,-453
1224720,-339
1224722,-190
1224724,-64
1224726,-24
1224728,-61
1224730,-160
1224732,-300
1224734,-412
1224736,-461
1224738,-447
1224739,-351
1224741,-228
1224743,-132
1224745,-70
1224747,-92
1224749,-191
1224751,-312
1224753,-421
1224755,-487
1224757,-466
1224759,-374
1224761,-244
1224763,-112
1224765,-33
1224767,-33
1224769,-109
1224770,-247
1224772,-390
1224774,-483
1224776,-492
1224778,-418
1224780,-288
1224782,-147
1224784,-41
1224786,-9
1224788,-62
1224790,-186
1224792,-330
1224794,-449
1224796,-497
1224798,-441
1224801,-325
1224803,-190
1224805,-81
1224807,-40
1224809,-93
1224811,-222
1224813,-366
1224815,-486
1224817,-531
1224819,-490
1224821,-380
1224823,-232
1224825,-109
1224827,-60
1224829,-93
1224831,-187
1224832,-319
1224833,-448
1224835,-505
1224837,-481
1224839,-386
1224841,-247
1224843,-116
1224845,-35
1224847,-26
1224849,-112
1224851,-243
1224853,-376
1224855,-478
1224857,-496
1224859,-429
1224861,-307
1224863,-163
1224864,-52
1224866,-22
1224868,-72
1224870,-181
1224872,-317
1224874,-429
1224876,-469
1224878,-429
1224880,-315
1224882,-177
1224884,-63
1224886,-6
1224888,-30
1224890,-128
1224892,-261
1224894,-374
1224895,-427
1224897,-399
1224899,-296
1224901,-160
1224903,-36
1224905,28
1224907,-2
1224909,-108
1224911,-253
1224913,-399
1224915,-482
1224917,-471
1224919,-372
1224921,-226
1224923,-78
1224926,18
1224928,30
1224930,-51
1224932,-192
1224934,-331
1224936,-426
1224938,-436
1224940,-364
1224942,-238
1224944,-97
1224946,-7
1224948,4
1224950,-61
1224952,-185
1224954,-326
1224956,-427
1224957,-445
1224958,-382
1224960,-257
1224962,-115
1224964,-2
1224966,41
1224968,-5
1224970,-123
1224972,-266
1224974,-390
1224976,-464
1224978,-439
1224980,-335
1224982,-202
1224984,-73
1224986,-6
1224988,-28
1224989,-137
1224991,-277
1224993,-410
1224995,-491
1224997,-496
1224999,-410
1225001,-261
1225003,-114
1225005,-25
1225007,-14
1225009,-86
1225011,-208
1225013,-333
1225015,-419
1225017,-432
1225019,-365
1225020,-240
1225022,-100
1225024,7
1225026,23
1225028,-45
1225030,-176
1225032,-314
1225034,-415
1225036,-451
1225038,-404
1225040,-284
1225042,-142
1225044,-26
1225046,16
1225048,-25
1225051,-138
1225053,-281
1225055,-401
1225057,-457
1225059,-432
1225061,-332
1225063,-209
1225065,-83
1225067,-16
1225069,-43
1225071,-146
1225073,-293
1225075,-442
1225077,-531
1225079,-529
1225081,-452
1225082,-313
1225083,-166
1225085,-79
1225087,-63
1225089,-123
1225091,-256
1225093,-391
1225095,-483
1225097,-499
1225099,-419
1225101,-295
1225103,-171
1225105,-71
1225107,-53
1225109,-129
1225111,-259
1225113,-390
1225114,-493
1225116,-514
1225118,-447
1225120,-321
1225122,-179
1225124,-84
1225126,-56
1225128,-94
1225130,-209
1225132,-352
1225134,-458
1225136,-487
1225138,-439
1225140,-326
1225142,-179
1225144,-46
1225145,22
1225147,-1
1225149,-105
1225151,-252
1225153,-401
1225155,-504
1225157,-509
1225159,-423
1225161,-291
1225163,-155
1225165,-68
1225167,-58
1225169,-129
1225171,-262
1225173,-408
1225176,-504
1225178,-513
1225180,-449
1225182,-326
1225184,-185
1225186,-81
1225188,-48
1225190,-97
1225192,-215
1225194,-343
1225196,-431
1225198,-463
1225200,-408
1225202,-286
1225204,-153
1225206,-42
1225207,-3
1225208,-56
1225210,-173
1225212,-315
1225214,-443
1225216,-501
1225218,-456
1225220,-351
1225222,-209
1225224,-73
1225226,-6
1225228,-23
1225230,-109
1225232,-242
1225234,-373
1225236,-447
1225238,-443
1225239,-363
1225241,-233
1225243,-94
1225245,-2
1225247,4
1225249,-79
1225251,-214
1225253,-350
1225255,-446
1225257,-458
1225259,-377
1225261,-246
1225263,-104
1225265,1
1225267,24
1225269,-47
1225270,-188
1225272,-333
1225274,-433
1225276,-467
1225278,-414
1225280,-294
1225282,-159
1225284,-59
1225286,-7
1225288,-46
1225290,-156
1225292,-290
1225294,-411
1225296,-468
1225298,-434
1225301,-349
1225303,-231
1225305,-108
1225307,-41
1225309,-59
1225311,-149
1225313,-290
1225315,-420
1225317,-488
1225319,-487
1225321,-407
1225323,-282
1225325,-167
1225327,-91
1225329,-91
1225331,-168
1225332,-291
1225333,-412
1225335,-488
1225337,-497
1225339,-433
1225341,-314
1225343,-194
1225345,-113
1225347,-91
1225349,-139
1225351,-251
1225353,-373
1225355,-460
1225357,-478
1225359,-429
1225361,-331
1225363,-203
1225364,-91
1225366,-58
1225368,-106
1225370,-207
1225372,-337
1225374,-445
1225376,-494
1225378,-451
1225380,-340
1225382,-199
1225384,-73
1225386,1
1225388,-13
1225390,-110
1225392,-257
1225394,-401
1225395,-504
1225397,-522
1225399,-443
1225401,-316
1225403,-180
1225405,-82
1225407,-58
1225409,-127
1225411,-257
1225413,-399
1225415,-506
1225417,-525
1225419,-450
1225421,-321
1225423,-163
1225426,-48
1225428,-17
1225430,-72
1225432,-198
1225434,-340
1225436,-449
1225438,-484
1225440,-426
1225442,-291
1225444,-134
1225446,-28
1225448,18
1225450,-6
1225452,-118
1225454,-261
1225456,-375
1225457,-422
1225458,-406
1225460,-325
1225462,-200
1225464,-90
1225466,-41
1225468,-70
1225470,-165
1225472,-289
1225474,-412
1225476,-480
1225478,-455
1225480,-361
1225482,-233
1225484,-88
1225486,13
1225488,24
1225489,-58
1225491,-192
1225493,-342
1225495,-449
1225497,-463
1225499,-399
1225501,-284
1225503,-145
1225505,-42
1225507,-22
1225509,-85
1225511,-207
1225513,-336
1225515,-433
1225517,-469
1225519,-411
1225520,-284
1225522,-154
1225524,-49
1225526,6
1225528,-24
1225530,-132
1225532,-275
1225534,-392
1225536,-457
1225538,-455
1225540,-376
1225542,-251
1225544,-131
1225546,-71
1225548,-82
1225551,-161
1225553,-293
1225555,-421
1225557,-494
1225559,-488
1225561,-401
1225563,-271
1225565,-136
1225567,-45
1225569,-33
1225571,-108
1225573,-236
1225575,-367
1225577,-468
1225579,-480
1225581,-404
1225582,-277
1225583,-142
1225585,-53
1225587,-47
1225589,-128
1225591,-268
1225593,-419
1225595,-534
1225597,-567
1225599,-514
1225601,-394
1225603,-247
1225605,-132
1225607,-90
1225609,-129
1225611,-234
1225613,-363
1225614,-456
1225616,-479
1225618,-430
1225620,-313
1225622,-164
1225624,-37
1225626,18
1225628,-17
1225630,-129
1225632,-273
1225634,-402
1225636,-471
1225638,-448
1225640,-358
1225642,-230
1225644,-97
1225645,-16
1225647,-17
1225649,-108
1225651,-244
1225653,-383
1225655,-482
1225657,-504
1225659,-434
1225661,-300
1225663,-155
1225665,-43
1225667,1
1225669,-52
1225671,-178
1225673,-334
1225676,-448
1225678,-501
1225680,-480
1225682,-373
1225684,-230
1225686,-111
1225688,-55
1225690,-84
1225692,-190
1225694,-330
1225696,-458
1225698,-510
1225700,-470
1225702,-367
1225704,-231
1225706,-113
1225707,-53
1225708,-85
1225710,-201
1225712,-351
1225714,-482
1225716,-554
1225718,-530
1225720,-421
1225722,-273
1225724,-138
1225726,-71
1225728,-85
1225730,-170
1225732,-316
1225734,-463
1225736,-545
1225738,-540
1225739,-457
1225741,-319
1225743,-168
1225745,-58
1225747,-35
1225749,-102
1225751,-222
1225753,-350
1225755,-465
1225757,-509
1225759,-471
1225761,-372
1225763,-254
1225765,-156
1225767,-108
1225769,-137
1225770,-239
1225772,-367
1225774,-476
1225776,-529
1225778,-499
1225780,-401
1225782,-259
1225784,-121
1225786,-46
1225788,-69
1225790,-179
1225792,-343
1225794,-493
1225796,-582
1225798,-595
1225801,-513
1225803,-363
1225805,-215
1225807,-117
1225809,-103
1225811,-168
1225813,-290
1225815,-422
1225817,-504
1225819,-504
1225821,-432
1225823,-310
1225825,-180
1225827,-77
1225829,-47
1225831,-97
1225832,-204
1225833,-328
1225835,-424
1225837,-457
1225839,-405
1225841,-297
1225843,-173
1225845,-65
1225847,-29
1225849,-67
1225851,-164
1225853,-296
1225855,-405
1225857,-445
1225859,-412
1225861,-310
1225863,-174
1225864,-59
1225866,-5
1225868,-27
1225870,-125
1225872,-266
1225874,-398
1225876,-473
1225878,-452
1225880,-362
1225882,-241
1225884,-117
1225886,-32
1225888,-34
1225890,-110
1225892,-236
1225894,-364
1225895,-452
1225897,-463
1225899,-395
1225901,-275
1225903,-143
1225905,-45
1225907,-4
1225909,-41
1225911,-152
1225913,-278
1225915,-381
1225917,-415
1225919,-372
1225921,-271
1225923,-140
1225926,-25
1225928,17
1225930,-27
1225932,-142
1225934,-286
1225936,-414
1225938,-471
1225940,-444
1225942,-353
1225944,-231
1225946,-114
1225948,-47
1225950,-63
1225952,-164
1225954,-299
1225956,-422
1225957,-489
1225958,-473
1225960,-374
1225962,-233
1225964,-95
1225966,-8
1225968,-8
1225970,-104
1225972,-256
1225974,-416
1225976,-528
1225978,-551
1225980,-475
1225982,-338
1225984,-194
1225986,-91
1225988,-58
1225989,-117
1225991,-242
1225993,-388
1225995,-493
1225997,-524
1225999,-465
1226001,-345
1226003,-198
1226005,-79
1226007,-44
1226009,-83
1226011,-185
1226013,-328
1226015,-459
1226017,-526
1226019,-513
1226020,-427
1226022,-292
1226024,-165
1226026,-85
1226028,-79
1226030,-158
1226032,-281
1226034,-402
1226036,-480
1226038,-485
1226040,-413
1226042,-282
1226044,-148
1226046,-57
1226048,-37
1226051,-104
1226053,-229
1226055,-361
1226057,-454
1226059,-467
1226061,-400
1226063,-286
1226065,-160
1226067,-58
1226069,-28
1226071,-84
1226073,-199
1226075,-331
1226077,-434
1226079,-471
1226081,-427
1226082,-320
1226083,-191
1226085,-79
1226087,-37
1226089,-68
1226091,-187
1226093,-346
1226095,-476
1226097,-546
1226099,-531
1226101,-437
1226103,-299
1226105,-171
1226107,-96
1226109,-99
1226111,-179
1226113,-296
1226114,-415
1226116,-488
1226118,-468
1226120,-368
1226122,-246
1226124,-119
1226126,-35
1226128,-26
1226130,-87
1226132,-202
1226134,-320
1226136,-399
1226138,-414
1226140,-348
1226142,-242
1226144,-119
1226145,-31
1226147,-24
1226149,-84
1226151,-203
1226153,-328
1226155,-423
1226157,-446
1226159,-387
1226161,-269
1226163,-132
1226165,-40
1226167,-13
1226169,-60
1226171,-189
1226173,-327
1226176,-432
1226178,-478
1226180,-434
1226182,-325
1226184,-183
1226186,-53
1226188,12
1226190,-3
1226192,-90
1226194,-222
1226196,-348
1226198,-424
1226200,-417
1226202,-330
1226204,-205
1226206,-74
1226207,8
1226208,5
1226210,-86
1226212,-227
1226214,-367
1226216,-461
1226218,-474
1226220,-405
1226222,-274
1226224,-131
1226226,-47
1226228,-40
1226230,-107
1226232,-232
1226234,-364
1226236,-460
1226238,-481
1226239,-414
1226241,-297
1226243,-173
1226245,-73
1226247,-35
1226249,-93
1226251,-199
1226253,-323
1226255,-436
1226257,-488
1226259,-453
1226261,-354
1226263,-218
1226265,-97
1226267,-38
1226269,-44
1226270,-125
1226272,-258
1226274,-376
1226276,-447
1226278,-447
1226280,-363
1226282,-226
1226284,-99
1226286,-30
